# OpenSignals Text File Format. Version 1
# {"20:15:05:29:22:23": {"position": 0, "device": "bitalino", "device name": "20:15:05:29:22:23", "device connection": "BTH20:15:05:29:22:23", "sampling rate": 100, "resolution": [4, 1, 1, 1, 1, 10, 10, 10, 10, 6, 6], "firmware version": 771, "comments": "", "keywords": "", "mode": 0, "sync interval": 2, "date": "2021-4-26", "time": "21:26:48.82", "channels": [1, 2, 3, 4, 5, 6], "sensor": ["RAW", "RAW", "ECGBIT", "RAW", "RAW", "RAW"], "label": ["A1", "A2", "A3", "A4", "A5", "A6"], "column": ["nSeq", "I1", "I2", "I3", "I4", "A1", "A2", "A3", "A4", "A5", "A6"], "special": [{}, {}, {}, {}, {}, {}], "digital IO": [0, 0, 0, 0, 1, 1, 1, 1], "convertedValues": 0}}
# EndOfHeader
0	0	0	0	0	0	0	536	19	0	0	
1	0	0	0	0	0	0	561	7	0	0	
2	0	0	0	0	0	0	536	19	0	0	
3	0	0	0	0	0	0	563	7	0	0	
4	0	0	0	0	0	0	539	7	0	0	
5	0	0	0	0	0	0	563	21	0	0	
6	0	0	0	0	0	0	537	19	0	0	
7	0	0	0	0	0	0	566	22	0	0	
8	0	0	0	0	0	0	542	19	0	0	
9	0	0	0	0	0	0	568	22	0	0	
10	0	0	0	0	0	0	542	19	0	0	
11	0	0	0	0	0	0	566	22	0	0	
12	0	0	0	0	0	0	539	19	0	0	
13	0	0	0	0	0	0	561	21	0	0	
14	0	0	0	0	0	0	534	19	0	0	
15	0	0	0	0	0	0	560	20	0	0	
0	0	0	0	0	0	0	532	19	0	0	
1	0	0	0	0	0	0	557	20	0	0	
2	0	0	0	0	0	0	527	19	0	0	
3	0	0	0	0	0	0	543	19	0	0	
4	0	0	0	0	0	0	523	7	0	0	
5	0	0	0	0	0	0	612	24	0	0	
6	0	0	0	0	0	0	657	27	0	0	
7	0	0	0	0	0	0	641	25	0	0	
8	0	0	0	0	0	0	547	20	0	0	
9	0	0	0	0	0	0	572	22	0	0	
10	0	0	0	0	0	0	527	19	0	0	
11	0	0	0	0	0	0	551	20	0	0	
12	0	0	0	0	0	0	526	19	0	0	
13	0	0	0	0	0	0	551	20	0	0	
14	0	0	0	0	0	0	527	19	0	0	
15	0	0	0	0	0	0	550	20	0	0	
0	0	0	0	0	0	0	524	19	0	0	
1	0	0	0	0	0	0	548	20	0	0	
2	0	0	0	0	0	0	524	19	0	0	
3	0	0	0	0	0	0	547	20	0	0	
4	0	0	0	0	0	0	524	19	0	0	
5	0	0	0	0	0	0	550	20	0	0	
6	0	0	0	0	0	0	524	19	0	0	
7	0	0	0	0	0	0	551	20	0	0	
8	0	0	0	0	0	0	529	19	0	0	
9	0	0	0	0	0	0	555	20	0	0	
10	0	0	0	0	0	0	529	7	0	0	
11	0	0	0	0	0	0	556	20	0	0	
12	0	0	0	0	0	0	534	7	0	0	
13	0	0	0	0	0	0	560	21	0	0	
14	0	0	0	0	0	0	536	19	0	0	
15	0	0	0	0	0	0	561	21	0	0	
0	0	0	0	0	0	0	539	19	0	0	
1	0	0	0	0	0	0	563	21	0	0	
2	0	0	0	0	0	0	540	19	0	0	
3	0	0	0	0	0	0	564	21	0	0	
4	0	0	0	0	0	0	537	19	0	0	
5	0	0	0	0	0	0	560	20	0	0	
6	0	0	0	0	0	0	534	19	0	0	
7	0	0	0	0	0	0	558	20	0	0	
8	0	0	0	0	0	0	532	19	0	0	
9	0	0	0	0	0	0	556	20	0	0	
10	0	0	0	0	0	0	531	19	0	0	
11	0	0	0	0	0	0	555	20	0	0	
12	0	0	0	0	0	0	531	19	0	0	
13	0	0	0	0	0	0	551	20	0	0	
14	0	0	0	0	0	0	527	19	0	0	
15	0	0	0	0	0	0	550	20	0	0	
0	0	0	0	0	0	0	527	19	0	0	
1	0	0	0	0	0	0	551	20	0	0	
2	0	0	0	0	0	0	528	19	0	0	
3	0	0	0	0	0	0	551	20	0	0	
4	0	0	0	0	0	0	527	7	0	0	
5	0	0	0	0	0	0	551	20	0	0	
6	0	0	0	0	0	0	527	19	0	0	
7	0	0	0	0	0	0	551	20	0	0	
8	0	0	0	0	0	0	527	19	0	0	
9	0	0	0	0	0	0	550	20	0	0	
10	0	0	0	0	0	0	525	7	0	0	
11	0	0	0	0	0	0	547	20	0	0	
12	0	0	0	0	0	0	524	19	0	0	
13	0	0	0	0	0	0	545	7	0	0	
14	0	0	0	0	0	0	524	7	0	0	
15	0	0	0	0	0	0	547	20	0	0	
0	0	0	0	0	0	0	524	19	0	0	
1	0	0	0	0	0	0	547	20	0	0	
2	0	0	0	0	0	0	524	19	0	0	
3	0	0	0	0	0	0	548	20	0	0	
4	0	0	0	0	0	0	527	19	0	0	
5	0	0	0	0	0	0	550	20	0	0	
6	0	0	0	0	0	0	527	19	0	0	
7	0	0	0	0	0	0	550	20	0	0	
8	0	0	0	0	0	0	527	19	0	0	
9	0	0	0	0	0	0	547	20	0	0	
10	0	0	0	0	0	0	526	19	0	0	
11	0	0	0	0	0	0	555	20	0	0	
12	0	0	0	0	0	0	531	19	0	0	
13	0	0	0	0	0	0	551	7	0	0	
14	0	0	0	0	0	0	531	19	0	0	
15	0	0	0	0	0	0	551	20	0	0	
0	0	0	0	0	0	0	526	19	0	0	
1	0	0	0	0	0	0	543	20	0	0	
2	0	0	0	0	0	0	521	19	0	0	
3	0	0	0	0	0	0	545	7	0	0	
4	0	0	0	0	0	0	523	19	0	0	
5	0	0	0	0	0	0	541	19	0	0	
6	0	0	0	0	0	0	512	19	0	0	
7	0	0	0	0	0	0	525	19	0	0	
8	0	0	0	0	0	0	532	19	0	0	
9	0	0	0	0	0	0	636	25	0	0	
10	0	0	0	0	0	0	633	24	0	0	
11	0	0	0	0	0	0	574	22	0	0	
12	0	0	0	0	0	0	534	19	0	0	
13	0	0	0	0	0	0	549	20	0	0	
14	0	0	0	0	0	0	518	19	0	0	
15	0	0	0	0	0	0	540	19	0	0	
0	0	0	0	0	0	0	519	19	0	0	
1	0	0	0	0	0	0	540	7	0	0	
2	0	0	0	0	0	0	519	19	0	0	
3	0	0	0	0	0	0	540	19	0	0	
4	0	0	0	0	0	0	517	19	0	0	
5	0	0	0	0	0	0	536	19	0	0	
6	0	0	0	0	0	0	517	19	0	0	
7	0	0	0	0	0	0	537	19	0	0	
8	0	0	0	0	0	0	515	19	0	0	
9	0	0	0	0	0	0	538	19	0	0	
10	0	0	0	0	0	0	518	19	0	0	
11	0	0	0	0	0	0	539	19	0	0	
12	0	0	0	0	0	0	519	19	0	0	
13	0	0	0	0	0	0	542	19	0	0	
14	0	0	0	0	0	0	524	19	0	0	
15	0	0	0	0	0	0	547	20	0	0	
0	0	0	0	0	0	0	527	19	0	0	
1	0	0	0	0	0	0	551	20	0	0	
2	0	0	0	0	0	0	531	7	0	0	
3	0	0	0	0	0	0	553	20	0	0	
4	0	0	0	0	0	0	535	19	0	0	
5	0	0	0	0	0	0	555	20	0	0	
6	0	0	0	0	0	0	532	19	0	0	
7	0	0	0	0	0	0	551	20	0	0	
8	0	0	0	0	0	0	529	19	0	0	
9	0	0	0	0	0	0	543	19	0	0	
10	0	0	0	0	0	0	519	19	0	0	
11	0	0	0	0	0	0	539	19	0	0	
12	0	0	0	0	0	0	518	19	0	0	
13	0	0	0	0	0	0	536	19	0	0	
14	0	0	0	0	0	0	518	19	0	0	
15	0	0	0	0	0	0	536	19	0	0	
0	0	0	0	0	0	0	516	7	0	0	
1	0	0	0	0	0	0	536	19	0	0	
2	0	0	0	0	0	0	519	19	0	0	
3	0	0	0	0	0	0	540	19	0	0	
4	0	0	0	0	0	0	519	19	0	0	
5	0	0	0	0	0	0	539	19	0	0	
6	0	0	0	0	0	0	519	19	0	0	
7	0	0	0	0	0	0	540	19	0	0	
8	0	0	0	0	0	0	518	19	0	0	
9	0	0	0	0	0	0	539	19	0	0	
10	0	0	0	0	0	0	519	19	0	0	
11	0	0	0	0	0	0	536	19	0	0	
12	0	0	0	0	0	0	519	7	0	0	
13	0	0	0	0	0	0	536	19	0	0	
14	0	0	0	0	0	0	518	19	0	0	
15	0	0	0	0	0	0	536	19	0	0	
0	0	0	0	0	0	0	515	19	0	0	
1	0	0	0	0	0	0	535	19	0	0	
2	0	0	0	0	0	0	516	19	0	0	
3	0	0	0	0	0	0	533	19	0	0	
4	0	0	0	0	0	0	513	19	0	0	
5	0	0	0	0	0	0	532	19	0	0	
6	0	0	0	0	0	0	513	19	0	0	
7	0	0	0	0	0	0	534	19	0	0	
8	0	0	0	0	0	0	515	19	0	0	
9	0	0	0	0	0	0	535	19	0	0	
10	0	0	0	0	0	0	518	19	0	0	
11	0	0	0	0	0	0	539	19	0	0	
12	0	0	0	0	0	0	523	19	0	0	
13	0	0	0	0	0	0	541	19	0	0	
14	0	0	0	0	0	0	521	19	0	0	
15	0	0	0	0	0	0	537	19	0	0	
0	0	0	0	0	0	0	516	19	0	0	
1	0	0	0	0	0	0	531	19	0	0	
2	0	0	0	0	0	0	513	7	0	0	
3	0	0	0	0	0	0	532	19	0	0	
4	0	0	0	0	0	0	515	19	0	0	
5	0	0	0	0	0	0	531	19	0	0	
6	0	0	0	0	0	0	504	18	0	0	
7	0	0	0	0	0	0	519	19	0	0	
8	0	0	0	0	0	0	551	20	0	0	
9	0	0	0	0	0	0	654	26	0	0	
10	0	0	0	0	0	0	621	9	0	0	
11	0	0	0	0	0	0	556	20	0	0	
12	0	0	0	0	0	0	531	19	0	0	
13	0	0	0	0	0	0	536	19	0	0	
14	0	0	0	0	0	0	510	19	0	0	
15	0	0	0	0	0	0	528	19	0	0	
0	0	0	0	0	0	0	510	19	0	0	
1	0	0	0	0	0	0	527	19	0	0	
2	0	0	0	0	0	0	510	19	0	0	
3	0	0	0	0	0	0	526	19	0	0	
4	0	0	0	0	0	0	508	19	0	0	
5	0	0	0	0	0	0	524	19	0	0	
6	0	0	0	0	0	0	511	19	0	0	
7	0	0	0	0	0	0	527	19	0	0	
8	0	0	0	0	0	0	510	19	0	0	
9	0	0	0	0	0	0	527	19	0	0	
10	0	0	0	0	0	0	511	19	0	0	
11	0	0	0	0	0	0	530	19	0	0	
12	0	0	0	0	0	0	515	19	0	0	
13	0	0	0	0	0	0	531	19	0	0	
14	0	0	0	0	0	0	519	19	0	0	
15	0	0	0	0	0	0	537	19	0	0	
0	0	0	0	0	0	0	524	19	0	0	
1	0	0	0	0	0	0	542	19	0	0	
2	0	0	0	0	0	0	527	19	0	0	
3	0	0	0	0	0	0	547	20	0	0	
4	0	0	0	0	0	0	534	19	0	0	
5	0	0	0	0	0	0	551	20	0	0	
6	0	0	0	0	0	0	535	19	0	0	
7	0	0	0	0	0	0	548	20	0	0	
8	0	0	0	0	0	0	532	19	0	0	
9	0	0	0	0	0	0	543	20	0	0	
10	0	0	0	0	0	0	527	19	0	0	
11	0	0	0	0	0	0	543	20	0	0	
12	0	0	0	0	0	0	527	19	0	0	
13	0	0	0	0	0	0	543	19	0	0	
14	0	0	0	0	0	0	527	19	0	0	
15	0	0	0	0	0	0	543	20	0	0	
0	0	0	0	0	0	0	529	19	0	0	
1	0	0	0	0	0	0	543	19	0	0	
2	0	0	0	0	0	0	528	19	0	0	
3	0	0	0	0	0	0	545	20	0	0	
4	0	0	0	0	0	0	531	19	0	0	
5	0	0	0	0	0	0	547	20	0	0	
6	0	0	0	0	0	0	531	19	0	0	
7	0	0	0	0	0	0	547	20	0	0	
8	0	0	0	0	0	0	531	19	0	0	
9	0	0	0	0	0	0	547	20	0	0	
10	0	0	0	0	0	0	531	19	0	0	
11	0	0	0	0	0	0	545	7	0	0	
12	0	0	0	0	0	0	531	19	0	0	
13	0	0	0	0	0	0	545	20	0	0	
14	0	0	0	0	0	0	531	19	0	0	
15	0	0	0	0	0	0	543	19	0	0	
0	0	0	0	0	0	0	527	19	0	0	
1	0	0	0	0	0	0	542	19	0	0	
2	0	0	0	0	0	0	527	19	0	0	
3	0	0	0	0	0	0	540	19	0	0	
4	0	0	0	0	0	0	527	19	0	0	
5	0	0	0	0	0	0	541	7	0	0	
6	0	0	0	0	0	0	527	19	0	0	
7	0	0	0	0	0	0	547	20	0	0	
8	0	0	0	0	0	0	536	19	0	0	
9	0	0	0	0	0	0	547	20	0	0	
10	0	0	0	0	0	0	536	19	0	0	
11	0	0	0	0	0	0	545	20	0	0	
12	0	0	0	0	0	0	529	19	0	0	
13	0	0	0	0	0	0	537	19	0	0	
14	0	0	0	0	0	0	521	19	0	0	
15	0	0	0	0	0	0	536	19	0	0	
0	0	0	0	0	0	0	521	19	0	0	
1	0	0	0	0	0	0	533	19	0	0	
2	0	0	0	0	0	0	515	19	0	0	
3	0	0	0	0	0	0	518	19	0	0	
4	0	0	0	0	0	0	515	19	0	0	
5	0	0	0	0	0	0	601	24	0	0	
6	0	0	0	0	0	0	655	26	0	0	
7	0	0	0	0	0	0	614	24	0	0	
8	0	0	0	0	0	0	539	19	0	0	
9	0	0	0	0	0	0	550	20	0	0	
10	0	0	0	0	0	0	519	19	0	0	
11	0	0	0	0	0	0	527	19	0	0	
12	0	0	0	0	0	0	515	7	0	0	
13	0	0	0	0	0	0	527	19	0	0	
14	0	0	0	0	0	0	514	19	0	0	
15	0	0	0	0	0	0	527	19	0	0	
0	0	0	0	0	0	0	516	19	0	0	
1	0	0	0	0	0	0	527	19	0	0	
2	0	0	0	0	0	0	515	19	0	0	
3	0	0	0	0	0	0	528	19	0	0	
4	0	0	0	0	0	0	515	19	0	0	
5	0	0	0	0	0	0	529	7	0	0	
6	0	0	0	0	0	0	518	19	0	0	
7	0	0	0	0	0	0	529	19	0	0	
8	0	0	0	0	0	0	519	19	0	0	
9	0	0	0	0	0	0	531	19	0	0	
10	0	0	0	0	0	0	521	19	0	0	
11	0	0	0	0	0	0	536	19	0	0	
12	0	0	0	0	0	0	527	19	0	0	
13	0	0	0	0	0	0	539	19	0	0	
14	0	0	0	0	0	0	527	19	0	0	
15	0	0	0	0	0	0	543	19	0	0	
0	0	0	0	0	0	0	531	19	0	0	
1	0	0	0	0	0	0	546	20	0	0	
2	0	0	0	0	0	0	536	19	0	0	
3	0	0	0	0	0	0	544	20	0	0	
4	0	0	0	0	0	0	531	19	0	0	
5	0	0	0	0	0	0	540	19	0	0	
6	0	0	0	0	0	0	527	19	0	0	
7	0	0	0	0	0	0	537	19	0	0	
8	0	0	0	0	0	0	525	19	0	0	
9	0	0	0	0	0	0	536	7	0	0	
10	0	0	0	0	0	0	523	19	0	0	
11	0	0	0	0	0	0	535	12	0	0	
12	0	0	0	0	0	0	523	19	0	0	
13	0	0	0	0	0	0	532	19	0	0	
14	0	0	0	0	0	0	524	19	0	0	
15	0	0	0	0	0	0	535	19	0	0	
0	0	0	0	0	0	0	524	19	0	0	
1	0	0	0	0	0	0	536	19	0	0	
2	0	0	0	0	0	0	525	19	0	0	
3	0	0	0	0	0	0	536	19	0	0	
4	0	0	0	0	0	0	527	7	0	0	
5	0	0	0	0	0	0	537	19	0	0	
6	0	0	0	0	0	0	527	19	0	0	
7	0	0	0	0	0	0	536	19	0	0	
8	0	0	0	0	0	0	527	19	0	0	
9	0	0	0	0	0	0	536	19	0	0	
10	0	0	0	0	0	0	526	19	0	0	
11	0	0	0	0	0	0	536	7	0	0	
12	0	0	0	0	0	0	524	19	0	0	
13	0	0	0	0	0	0	535	19	0	0	
14	0	0	0	0	0	0	524	19	0	0	
15	0	0	0	0	0	0	532	19	0	0	
0	0	0	0	0	0	0	523	19	0	0	
1	0	0	0	0	0	0	531	19	0	0	
2	0	0	0	0	0	0	521	19	0	0	
3	0	0	0	0	0	0	531	19	0	0	
4	0	0	0	0	0	0	523	19	0	0	
5	0	0	0	0	0	0	532	19	0	0	
6	0	0	0	0	0	0	527	19	0	0	
7	0	0	0	0	0	0	540	19	0	0	
8	0	0	0	0	0	0	531	19	0	0	
9	0	0	0	0	0	0	542	19	0	0	
10	0	0	0	0	0	0	529	19	0	0	
11	0	0	0	0	0	0	536	19	0	0	
12	0	0	0	0	0	0	524	19	0	0	
13	0	0	0	0	0	0	532	19	0	0	
14	0	0	0	0	0	0	524	19	0	0	
15	0	0	0	0	0	0	533	19	0	0	
0	0	0	0	0	0	0	524	19	0	0	
1	0	0	0	0	0	0	526	19	0	0	
2	0	0	0	0	0	0	505	18	0	0	
3	0	0	0	0	0	0	527	19	0	0	
4	0	0	0	0	0	0	595	23	0	0	
5	0	0	0	0	0	0	668	27	0	0	
6	0	0	0	0	0	0	591	23	0	0	
7	0	0	0	0	0	0	551	20	0	0	
8	0	0	0	0	0	0	534	19	0	0	
9	0	0	0	0	0	0	524	19	0	0	
10	0	0	0	0	0	0	511	19	0	0	
11	0	0	0	0	0	0	521	19	0	0	
12	0	0	0	0	0	0	513	19	0	0	
13	0	0	0	0	0	0	521	19	0	0	
14	0	0	0	0	0	0	513	19	0	0	
15	0	0	0	0	0	0	521	19	0	0	
0	0	0	0	0	0	0	513	19	0	0	
1	0	0	0	0	0	0	523	19	0	0	
2	0	0	0	0	0	0	513	19	0	0	
3	0	0	0	0	0	0	520	19	0	0	
4	0	0	0	0	0	0	513	19	0	0	
5	0	0	0	0	0	0	524	19	0	0	
6	0	0	0	0	0	0	519	19	0	0	
7	0	0	0	0	0	0	526	19	0	0	
8	0	0	0	0	0	0	519	19	0	0	
9	0	0	0	0	0	0	529	19	0	0	
10	0	0	0	0	0	0	524	19	0	0	
11	0	0	0	0	0	0	531	19	0	0	
12	0	0	0	0	0	0	527	19	0	0	
13	0	0	0	0	0	0	536	19	0	0	
14	0	0	0	0	0	0	531	19	0	0	
15	0	0	0	0	0	0	540	19	0	0	
0	0	0	0	0	0	0	536	19	0	0	
1	0	0	0	0	0	0	542	19	0	0	
2	0	0	0	0	0	0	535	19	0	0	
3	0	0	0	0	0	0	540	19	0	0	
4	0	0	0	0	0	0	531	19	0	0	
5	0	0	0	0	0	0	536	19	0	0	
6	0	0	0	0	0	0	527	19	0	0	
7	0	0	0	0	0	0	531	7	0	0	
8	0	0	0	0	0	0	526	19	0	0	
9	0	0	0	0	0	0	531	19	0	0	
10	0	0	0	0	0	0	526	19	0	0	
11	0	0	0	0	0	0	531	19	0	0	
12	0	0	0	0	0	0	526	19	0	0	
13	0	0	0	0	0	0	531	7	0	0	
14	0	0	0	0	0	0	526	19	0	0	
15	0	0	0	0	0	0	531	19	0	0	
0	0	0	0	0	0	0	526	19	0	0	
1	0	0	0	0	0	0	534	19	0	0	
2	0	0	0	0	0	0	527	19	0	0	
3	0	0	0	0	0	0	534	7	0	0	
4	0	0	0	0	0	0	528	19	0	0	
5	0	0	0	0	0	0	535	19	0	0	
6	0	0	0	0	0	0	527	19	0	0	
7	0	0	0	0	0	0	531	19	0	0	
8	0	0	0	0	0	0	526	19	0	0	
9	0	0	0	0	0	0	531	19	0	0	
10	0	0	0	0	0	0	527	19	0	0	
11	0	0	0	0	0	0	532	19	0	0	
12	0	0	0	0	0	0	527	19	0	0	
13	0	0	0	0	0	0	532	7	0	0	
14	0	0	0	0	0	0	527	19	0	0	
15	0	0	0	0	0	0	532	7	0	0	
0	0	0	0	0	0	0	527	19	0	0	
1	0	0	0	0	0	0	532	19	0	0	
2	0	0	0	0	0	0	527	19	0	0	
3	0	0	0	0	0	0	534	7	0	0	
4	0	0	0	0	0	0	529	19	0	0	
5	0	0	0	0	0	0	534	19	0	0	
6	0	0	0	0	0	0	530	7	0	0	
7	0	0	0	0	0	0	536	19	0	0	
8	0	0	0	0	0	0	532	19	0	0	
9	0	0	0	0	0	0	541	19	0	0	
10	0	0	0	0	0	0	536	19	0	0	
11	0	0	0	0	0	0	542	19	0	0	
12	0	0	0	0	0	0	535	19	0	0	
13	0	0	0	0	0	0	537	19	0	0	
14	0	0	0	0	0	0	529	19	0	0	
15	0	0	0	0	0	0	531	19	0	0	
0	0	0	0	0	0	0	529	7	0	0	
1	0	0	0	0	0	0	534	19	0	0	
2	0	0	0	0	0	0	527	19	0	0	
3	0	0	0	0	0	0	524	19	0	0	
4	0	0	0	0	0	0	508	19	0	0	
5	0	0	0	0	0	0	527	19	0	0	
6	0	0	0	0	0	0	604	24	0	0	
7	0	0	0	0	0	0	679	28	0	0	
8	0	0	0	0	0	0	601	24	0	0	
9	0	0	0	0	0	0	555	20	0	0	
10	0	0	0	0	0	0	542	19	0	0	
11	0	0	0	0	0	0	527	19	0	0	
12	0	0	0	0	0	0	521	19	0	0	
13	0	0	0	0	0	0	524	19	0	0	
14	0	0	0	0	0	0	519	19	0	0	
15	0	0	0	0	0	0	524	19	0	0	
0	0	0	0	0	0	0	519	19	0	0	
1	0	0	0	0	0	0	524	19	0	0	
2	0	0	0	0	0	0	521	19	0	0	
3	0	0	0	0	0	0	526	19	0	0	
4	0	0	0	0	0	0	523	19	0	0	
5	0	0	0	0	0	0	526	7	0	0	
6	0	0	0	0	0	0	523	19	0	0	
7	0	0	0	0	0	0	527	19	0	0	
8	0	0	0	0	0	0	524	19	0	0	
9	0	0	0	0	0	0	527	19	0	0	
10	0	0	0	0	0	0	527	19	0	0	
11	0	0	0	0	0	0	530	19	0	0	
12	0	0	0	0	0	0	527	19	0	0	
13	0	0	0	0	0	0	531	19	0	0	
14	0	0	0	0	0	0	529	19	0	0	
15	0	0	0	0	0	0	536	19	0	0	
0	0	0	0	0	0	0	536	19	0	0	
1	0	0	0	0	0	0	537	19	0	0	
2	0	0	0	0	0	0	536	19	0	0	
3	0	0	0	0	0	0	539	19	0	0	
4	0	0	0	0	0	0	536	19	0	0	
5	0	0	0	0	0	0	536	19	0	0	
6	0	0	0	0	0	0	529	19	0	0	
7	0	0	0	0	0	0	529	19	0	0	
8	0	0	0	0	0	0	525	19	0	0	
9	0	0	0	0	0	0	525	19	0	0	
10	0	0	0	0	0	0	520	19	0	0	
11	0	0	0	0	0	0	523	19	0	0	
12	0	0	0	0	0	0	519	19	0	0	
13	0	0	0	0	0	0	521	19	0	0	
14	0	0	0	0	0	0	520	7	0	0	
15	0	0	0	0	0	0	523	19	0	0	
0	0	0	0	0	0	0	521	19	0	0	
1	0	0	0	0	0	0	524	19	0	0	
2	0	0	0	0	0	0	523	19	0	0	
3	0	0	0	0	0	0	526	19	0	0	
4	0	0	0	0	0	0	524	19	0	0	
5	0	0	0	0	0	0	524	19	0	0	
6	0	0	0	0	0	0	523	19	0	0	
7	0	0	0	0	0	0	524	19	0	0	
8	0	0	0	0	0	0	521	19	0	0	
9	0	0	0	0	0	0	521	19	0	0	
10	0	0	0	0	0	0	520	19	0	0	
11	0	0	0	0	0	0	519	19	0	0	
12	0	0	0	0	0	0	519	19	0	0	
13	0	0	0	0	0	0	518	19	0	0	
14	0	0	0	0	0	0	516	19	0	0	
15	0	0	0	0	0	0	518	19	0	0	
0	0	0	0	0	0	0	516	19	0	0	
1	0	0	0	0	0	0	516	19	0	0	
2	0	0	0	0	0	0	518	19	0	0	
3	0	0	0	0	0	0	518	19	0	0	
4	0	0	0	0	0	0	515	19	0	0	
5	0	0	0	0	0	0	518	19	0	0	
6	0	0	0	0	0	0	519	19	0	0	
7	0	0	0	0	0	0	519	19	0	0	
8	0	0	0	0	0	0	518	19	0	0	
9	0	0	0	0	0	0	518	19	0	0	
10	0	0	0	0	0	0	524	7	0	0	
11	0	0	0	0	0	0	524	19	0	0	
12	0	0	0	0	0	0	524	19	0	0	
13	0	0	0	0	0	0	519	7	0	0	
14	0	0	0	0	0	0	518	19	0	0	
15	0	0	0	0	0	0	513	19	0	0	
0	0	0	0	0	0	0	512	19	0	0	
1	0	0	0	0	0	0	511	19	0	0	
2	0	0	0	0	0	0	511	19	0	0	
3	0	0	0	0	0	0	509	7	0	0	
4	0	0	0	0	0	0	504	18	0	0	
5	0	0	0	0	0	0	494	17	0	0	
6	0	0	0	0	0	0	505	18	0	0	
7	0	0	0	0	0	0	569	22	0	0	
8	0	0	0	0	0	0	625	24	0	0	
9	0	0	0	0	0	0	571	22	0	0	
10	0	0	0	0	0	0	518	19	0	0	
11	0	0	0	0	0	0	519	19	0	0	
12	0	0	0	0	0	0	505	18	0	0	
13	0	0	0	0	0	0	504	18	0	0	
14	0	0	0	0	0	0	505	18	0	0	
15	0	0	0	0	0	0	505	18	0	0	
0	0	0	0	0	0	0	505	18	0	0	
1	0	0	0	0	0	0	505	18	0	0	
2	0	0	0	0	0	0	510	19	0	0	
3	0	0	0	0	0	0	508	7	0	0	
4	0	0	0	0	0	0	507	18	0	0	
5	0	0	0	0	0	0	504	18	0	0	
6	0	0	0	0	0	0	508	18	0	0	
7	0	0	0	0	0	0	507	18	0	0	
8	0	0	0	0	0	0	508	18	0	0	
9	0	0	0	0	0	0	508	18	0	0	
10	0	0	0	0	0	0	510	19	0	0	
11	0	0	0	0	0	0	512	19	0	0	
12	0	0	0	0	0	0	515	19	0	0	
13	0	0	0	0	0	0	513	19	0	0	
14	0	0	0	0	0	0	518	7	0	0	
15	0	0	0	0	0	0	519	19	0	0	
0	0	0	0	0	0	0	524	19	0	0	
1	0	0	0	0	0	0	519	19	0	0	
2	0	0	0	0	0	0	524	19	0	0	
3	0	0	0	0	0	0	523	19	0	0	
4	0	0	0	0	0	0	524	19	0	0	
5	0	0	0	0	0	0	521	19	0	0	
6	0	0	0	0	0	0	523	19	0	0	
7	0	0	0	0	0	0	518	19	0	0	
8	0	0	0	0	0	0	517	19	0	0	
9	0	0	0	0	0	0	515	19	0	0	
10	0	0	0	0	0	0	516	19	0	0	
11	0	0	0	0	0	0	512	19	0	0	
12	0	0	0	0	0	0	516	19	0	0	
13	0	0	0	0	0	0	514	19	0	0	
14	0	0	0	0	0	0	518	19	0	0	
15	0	0	0	0	0	0	516	19	0	0	
0	0	0	0	0	0	0	519	19	0	0	
1	0	0	0	0	0	0	519	19	0	0	
2	0	0	0	0	0	0	519	19	0	0	
3	0	0	0	0	0	0	519	19	0	0	
4	0	0	0	0	0	0	524	19	0	0	
5	0	0	0	0	0	0	519	19	0	0	
6	0	0	0	0	0	0	526	19	0	0	
7	0	0	0	0	0	0	521	19	0	0	
8	0	0	0	0	0	0	526	19	0	0	
9	0	0	0	0	0	0	522	19	0	0	
10	0	0	0	0	0	0	526	19	0	0	
11	0	0	0	0	0	0	524	19	0	0	
12	0	0	0	0	0	0	527	19	0	0	
13	0	0	0	0	0	0	524	19	0	0	
14	0	0	0	0	0	0	528	19	0	0	
15	0	0	0	0	0	0	525	19	0	0	
0	0	0	0	0	0	0	529	19	0	0	
1	0	0	0	0	0	0	526	19	0	0	
2	0	0	0	0	0	0	531	19	0	0	
3	0	0	0	0	0	0	527	19	0	0	
4	0	0	0	0	0	0	531	19	0	0	
5	0	0	0	0	0	0	532	19	0	0	
6	0	0	0	0	0	0	536	19	0	0	
7	0	0	0	0	0	0	532	19	0	0	
8	0	0	0	0	0	0	535	19	0	0	
9	0	0	0	0	0	0	527	19	0	0	
10	0	0	0	0	0	0	527	19	0	0	
11	0	0	0	0	0	0	521	19	0	0	
12	0	0	0	0	0	0	527	19	0	0	
13	0	0	0	0	0	0	524	19	0	0	
14	0	0	0	0	0	0	527	19	0	0	
15	0	0	0	0	0	0	518	19	0	0	
0	0	0	0	0	0	0	516	19	0	0	
1	0	0	0	0	0	0	519	19	0	0	
2	0	0	0	0	0	0	577	22	0	0	
3	0	0	0	0	0	0	627	24	0	0	
4	0	0	0	0	0	0	585	23	0	0	
5	0	0	0	0	0	0	529	19	0	0	
6	0	0	0	0	0	0	540	19	0	0	
7	0	0	0	0	0	0	521	19	0	0	
8	0	0	0	0	0	0	524	7	0	0	
9	0	0	0	0	0	0	519	19	0	0	
10	0	0	0	0	0	0	524	19	0	0	
11	0	0	0	0	0	0	518	19	0	0	
12	0	0	0	0	0	0	524	19	0	0	
13	0	0	0	0	0	0	519	19	0	0	
14	0	0	0	0	0	0	525	19	0	0	
15	0	0	0	0	0	0	519	19	0	0	
0	0	0	0	0	0	0	527	19	0	0	
1	0	0	0	0	0	0	524	19	0	0	
2	0	0	0	0	0	0	529	19	0	0	
3	0	0	0	0	0	0	523	19	0	0	
4	0	0	0	0	0	0	529	19	0	0	
5	0	0	0	0	0	0	526	19	0	0	
6	0	0	0	0	0	0	534	7	0	0	
7	0	0	0	0	0	0	529	7	0	0	
8	0	0	0	0	0	0	536	19	0	0	
9	0	0	0	0	0	0	533	19	0	0	
10	0	0	0	0	0	0	541	19	0	0	
11	0	0	0	0	0	0	536	19	0	0	
12	0	0	0	0	0	0	547	20	0	0	
13	0	0	0	0	0	0	542	19	0	0	
14	0	0	0	0	0	0	550	20	0	0	
15	0	0	0	0	0	0	543	19	0	0	
0	0	0	0	0	0	0	547	20	0	0	
1	0	0	0	0	0	0	539	19	0	0	
2	0	0	0	0	0	0	543	20	0	0	
3	0	0	0	0	0	0	536	19	0	0	
4	0	0	0	0	0	0	540	7	0	0	
5	0	0	0	0	0	0	532	19	0	0	
6	0	0	0	0	0	0	540	19	0	0	
7	0	0	0	0	0	0	531	19	0	0	
8	0	0	0	0	0	0	537	19	0	0	
9	0	0	0	0	0	0	530	19	0	0	
10	0	0	0	0	0	0	539	19	0	0	
11	0	0	0	0	0	0	531	19	0	0	
12	0	0	0	0	0	0	539	19	0	0	
13	0	0	0	0	0	0	531	19	0	0	
14	0	0	0	0	0	0	539	19	0	0	
15	0	0	0	0	0	0	531	19	0	0	
0	0	0	0	0	0	0	540	19	0	0	
1	0	0	0	0	0	0	534	19	0	0	
2	0	0	0	0	0	0	543	19	0	0	
3	0	0	0	0	0	0	532	19	0	0	
4	0	0	0	0	0	0	538	19	0	0	
5	0	0	0	0	0	0	531	19	0	0	
6	0	0	0	0	0	0	539	19	0	0	
7	0	0	0	0	0	0	529	7	0	0	
8	0	0	0	0	0	0	536	19	0	0	
9	0	0	0	0	0	0	527	19	0	0	
10	0	0	0	0	0	0	537	19	0	0	
11	0	0	0	0	0	0	527	19	0	0	
12	0	0	0	0	0	0	536	19	0	0	
13	0	0	0	0	0	0	529	19	0	0	
14	0	0	0	0	0	0	542	19	0	0	
15	0	0	0	0	0	0	536	19	0	0	
0	0	0	0	0	0	0	543	19	0	0	
1	0	0	0	0	0	0	535	7	0	0	
2	0	0	0	0	0	0	539	19	0	0	
3	0	0	0	0	0	0	527	19	0	0	
4	0	0	0	0	0	0	532	19	0	0	
5	0	0	0	0	0	0	524	19	0	0	
6	0	0	0	0	0	0	534	19	0	0	
7	0	0	0	0	0	0	524	19	0	0	
8	0	0	0	0	0	0	530	19	0	0	
9	0	0	0	0	0	0	515	19	0	0	
10	0	0	0	0	0	0	515	19	0	0	
11	0	0	0	0	0	0	534	19	0	0	
12	0	0	0	0	0	0	620	24	0	0	
13	0	0	0	0	0	0	639	25	0	0	
14	0	0	0	0	0	0	568	22	0	0	
15	0	0	0	0	0	0	537	19	0	0	
0	0	0	0	0	0	0	537	19	0	0	
1	0	0	0	0	0	0	519	19	0	0	
2	0	0	0	0	0	0	527	19	0	0	
3	0	0	0	0	0	0	518	19	0	0	
4	0	0	0	0	0	0	527	19	0	0	
5	0	0	0	0	0	0	518	19	0	0	
6	0	0	0	0	0	0	527	19	0	0	
7	0	0	0	0	0	0	517	7	0	0	
8	0	0	0	0	0	0	527	19	0	0	
9	0	0	0	0	0	0	518	19	0	0	
10	0	0	0	0	0	0	526	19	0	0	
11	0	0	0	0	0	0	516	19	0	0	
12	0	0	0	0	0	0	527	19	0	0	
13	0	0	0	0	0	0	517	19	0	0	
14	0	0	0	0	0	0	527	19	0	0	
15	0	0	0	0	0	0	518	19	0	0	
0	0	0	0	0	0	0	529	19	0	0	
1	0	0	0	0	0	0	521	19	0	0	
2	0	0	0	0	0	0	534	19	0	0	
3	0	0	0	0	0	0	526	19	0	0	
4	0	0	0	0	0	0	536	19	0	0	
5	0	0	0	0	0	0	526	19	0	0	
6	0	0	0	0	0	0	539	19	0	0	
7	0	0	0	0	0	0	529	19	0	0	
8	0	0	0	0	0	0	542	7	0	0	
9	0	0	0	0	0	0	531	19	0	0	
10	0	0	0	0	0	0	542	19	0	0	
11	0	0	0	0	0	0	527	19	0	0	
12	0	0	0	0	0	0	536	19	0	0	
13	0	0	0	0	0	0	523	19	0	0	
14	0	0	0	0	0	0	534	19	0	0	
15	0	0	0	0	0	0	520	19	0	0	
0	0	0	0	0	0	0	532	19	0	0	
1	0	0	0	0	0	0	521	19	0	0	
2	0	0	0	0	0	0	533	7	0	0	
3	0	0	0	0	0	0	523	19	0	0	
4	0	0	0	0	0	0	532	19	0	0	
5	0	0	0	0	0	0	521	19	0	0	
6	0	0	0	0	0	0	531	19	0	0	
7	0	0	0	0	0	0	519	19	0	0	
8	0	0	0	0	0	0	532	19	0	0	
9	0	0	0	0	0	0	520	19	0	0	
10	0	0	0	0	0	0	534	19	0	0	
11	0	0	0	0	0	0	521	7	0	0	
12	0	0	0	0	0	0	532	19	0	0	
13	0	0	0	0	0	0	521	7	0	0	
14	0	0	0	0	0	0	536	19	0	0	
15	0	0	0	0	0	0	521	19	0	0	
0	0	0	0	0	0	0	535	19	0	0	
1	0	0	0	0	0	0	523	19	0	0	
2	0	0	0	0	0	0	534	19	0	0	
3	0	0	0	0	0	0	519	19	0	0	
4	0	0	0	0	0	0	535	19	0	0	
5	0	0	0	0	0	0	521	19	0	0	
6	0	0	0	0	0	0	534	19	0	0	
7	0	0	0	0	0	0	523	19	0	0	
8	0	0	0	0	0	0	536	19	0	0	
9	0	0	0	0	0	0	524	19	0	0	
10	0	0	0	0	0	0	536	19	0	0	
11	0	0	0	0	0	0	523	19	0	0	
12	0	0	0	0	0	0	540	19	0	0	
13	0	0	0	0	0	0	527	19	0	0	
14	0	0	0	0	0	0	540	19	0	0	
15	0	0	0	0	0	0	527	19	0	0	
0	0	0	0	0	0	0	537	19	0	0	
1	0	0	0	0	0	0	521	19	0	0	
2	0	0	0	0	0	0	531	19	0	0	
3	0	0	0	0	0	0	520	19	0	0	
4	0	0	0	0	0	0	531	19	0	0	
5	0	0	0	0	0	0	519	19	0	0	
6	0	0	0	0	0	0	529	19	0	0	
7	0	0	0	0	0	0	507	18	0	0	
8	0	0	0	0	0	0	515	19	0	0	
9	0	0	0	0	0	0	543	19	0	0	
10	0	0	0	0	0	0	638	25	0	0	
11	0	0	0	0	0	0	632	24	0	0	
12	0	0	0	0	0	0	559	20	0	0	
13	0	0	0	0	0	0	536	7	0	0	
14	0	0	0	0	0	0	536	19	0	0	
15	0	0	0	0	0	0	513	19	0	0	
0	0	0	0	0	0	0	527	19	0	0	
1	0	0	0	0	0	0	513	19	0	0	
2	0	0	0	0	0	0	525	19	0	0	
3	0	0	0	0	0	0	510	19	0	0	
4	0	0	0	0	0	0	524	7	0	0	
5	0	0	0	0	0	0	511	19	0	0	
6	0	0	0	0	0	0	524	19	0	0	
7	0	0	0	0	0	0	510	19	0	0	
8	0	0	0	0	0	0	524	19	0	0	
9	0	0	0	0	0	0	510	19	0	0	
10	0	0	0	0	0	0	524	19	0	0	
11	0	0	0	0	0	0	512	19	0	0	
12	0	0	0	0	0	0	527	19	0	0	
13	0	0	0	0	0	0	513	19	0	0	
14	0	0	0	0	0	0	527	19	0	0	
15	0	0	0	0	0	0	516	19	0	0	
0	0	0	0	0	0	0	531	19	0	0	
1	0	0	0	0	0	0	519	19	0	0	
2	0	0	0	0	0	0	536	19	0	0	
3	0	0	0	0	0	0	524	19	0	0	
4	0	0	0	0	0	0	540	19	0	0	
5	0	0	0	0	0	0	527	19	0	0	
6	0	0	0	0	0	0	544	20	0	0	
7	0	0	0	0	0	0	529	19	0	0	
8	0	0	0	0	0	0	543	19	0	0	
9	0	0	0	0	0	0	527	19	0	0	
10	0	0	0	0	0	0	540	19	0	0	
11	0	0	0	0	0	0	524	19	0	0	
12	0	0	0	0	0	0	536	19	0	0	
13	0	0	0	0	0	0	519	19	0	0	
14	0	0	0	0	0	0	535	7	0	0	
15	0	0	0	0	0	0	519	19	0	0	
0	0	0	0	0	0	0	535	19	0	0	
1	0	0	0	0	0	0	519	19	0	0	
2	0	0	0	0	0	0	534	19	0	0	
3	0	0	0	0	0	0	519	19	0	0	
4	0	0	0	0	0	0	536	19	0	0	
5	0	0	0	0	0	0	520	19	0	0	
6	0	0	0	0	0	0	536	19	0	0	
7	0	0	0	0	0	0	521	19	0	0	
8	0	0	0	0	0	0	537	19	0	0	
9	0	0	0	0	0	0	523	19	0	0	
10	0	0	0	0	0	0	539	19	0	0	
11	0	0	0	0	0	0	520	19	0	0	
12	0	0	0	0	0	0	536	19	0	0	
13	0	0	0	0	0	0	519	19	0	0	
14	0	0	0	0	0	0	536	19	0	0	
15	0	0	0	0	0	0	519	19	0	0	
0	0	0	0	0	0	0	534	19	0	0	
1	0	0	0	0	0	0	518	19	0	0	
2	0	0	0	0	0	0	534	19	0	0	
3	0	0	0	0	0	0	518	19	0	0	
4	0	0	0	0	0	0	535	7	0	0	
5	0	0	0	0	0	0	519	19	0	0	
6	0	0	0	0	0	0	536	19	0	0	
7	0	0	0	0	0	0	521	19	0	0	
8	0	0	0	0	0	0	536	7	0	0	
9	0	0	0	0	0	0	520	19	0	0	
10	0	0	0	0	0	0	539	19	0	0	
11	0	0	0	0	0	0	519	19	0	0	
12	0	0	0	0	0	0	540	19	0	0	
13	0	0	0	0	0	0	526	7	0	0	
14	0	0	0	0	0	0	542	19	0	0	
15	0	0	0	0	0	0	524	7	0	0	
0	0	0	0	0	0	0	539	19	0	0	
1	0	0	0	0	0	0	519	7	0	0	
2	0	0	0	0	0	0	532	19	0	0	
3	0	0	0	0	0	0	516	19	0	0	
4	0	0	0	0	0	0	534	19	0	0	
5	0	0	0	0	0	0	516	19	0	0	
6	0	0	0	0	0	0	531	19	0	0	
7	0	0	0	0	0	0	505	18	0	0	
8	0	0	0	0	0	0	515	19	0	0	
9	0	0	0	0	0	0	527	19	0	0	
10	0	0	0	0	0	0	627	24	0	0	
11	0	0	0	0	0	0	633	24	0	0	
12	0	0	0	0	0	0	564	21	0	0	
13	0	0	0	0	0	0	531	19	0	0	
14	0	0	0	0	0	0	536	19	0	0	
15	0	0	0	0	0	0	505	18	0	0	
0	0	0	0	0	0	0	524	19	0	0	
1	0	0	0	0	0	0	507	18	0	0	
2	0	0	0	0	0	0	526	19	0	0	
3	0	0	0	0	0	0	508	19	0	0	
4	0	0	0	0	0	0	524	19	0	0	
5	0	0	0	0	0	0	508	7	0	0	
6	0	0	0	0	0	0	527	19	0	0	
7	0	0	0	0	0	0	508	7	0	0	
8	0	0	0	0	0	0	527	19	0	0	
9	0	0	0	0	0	0	508	18	0	0	
10	0	0	0	0	0	0	527	19	0	0	
11	0	0	0	0	0	0	511	19	0	0	
12	0	0	0	0	0	0	529	19	0	0	
13	0	0	0	0	0	0	512	19	0	0	
14	0	0	0	0	0	0	531	19	0	0	
15	0	0	0	0	0	0	512	19	0	0	
0	0	0	0	0	0	0	531	19	0	0	
1	0	0	0	0	0	0	515	19	0	0	
2	0	0	0	0	0	0	537	19	0	0	
3	0	0	0	0	0	0	521	19	0	0	
4	0	0	0	0	0	0	540	19	0	0	
5	0	0	0	0	0	0	524	19	0	0	
6	0	0	0	0	0	0	543	19	0	0	
7	0	0	0	0	0	0	526	7	0	0	
8	0	0	0	0	0	0	543	7	0	0	
9	0	0	0	0	0	0	521	19	0	0	
10	0	0	0	0	0	0	539	19	0	0	
11	0	0	0	0	0	0	518	19	0	0	
12	0	0	0	0	0	0	536	19	0	0	
13	0	0	0	0	0	0	515	19	0	0	
14	0	0	0	0	0	0	534	19	0	0	
15	0	0	0	0	0	0	515	19	0	0	
0	0	0	0	0	0	0	534	19	0	0	
1	0	0	0	0	0	0	515	19	0	0	
2	0	0	0	0	0	0	536	19	0	0	
3	0	0	0	0	0	0	515	19	0	0	
4	0	0	0	0	0	0	536	19	0	0	
5	0	0	0	0	0	0	516	19	0	0	
6	0	0	0	0	0	0	537	19	0	0	
7	0	0	0	0	0	0	518	19	0	0	
8	0	0	0	0	0	0	536	19	0	0	
9	0	0	0	0	0	0	516	19	0	0	
10	0	0	0	0	0	0	537	19	0	0	
11	0	0	0	0	0	0	518	19	0	0	
12	0	0	0	0	0	0	537	19	0	0	
13	0	0	0	0	0	0	517	19	0	0	
14	0	0	0	0	0	0	536	19	0	0	
15	0	0	0	0	0	0	518	19	0	0	
0	0	0	0	0	0	0	536	19	0	0	
1	0	0	0	0	0	0	516	7	0	0	
2	0	0	0	0	0	0	536	19	0	0	
3	0	0	0	0	0	0	515	19	0	0	
4	0	0	0	0	0	0	536	19	0	0	
5	0	0	0	0	0	0	516	19	0	0	
6	0	0	0	0	0	0	536	19	0	0	
7	0	0	0	0	0	0	518	19	0	0	
8	0	0	0	0	0	0	537	19	0	0	
9	0	0	0	0	0	0	518	19	0	0	
10	0	0	0	0	0	0	536	19	0	0	
11	0	0	0	0	0	0	518	19	0	0	
12	0	0	0	0	0	0	537	19	0	0	
13	0	0	0	0	0	0	518	19	0	0	
14	0	0	0	0	0	0	540	19	0	0	
15	0	0	0	0	0	0	521	19	0	0	
0	0	0	0	0	0	0	543	19	0	0	
1	0	0	0	0	0	0	520	19	0	0	
2	0	0	0	0	0	0	540	19	0	0	
3	0	0	0	0	0	0	519	19	0	0	
4	0	0	0	0	0	0	536	19	0	0	
5	0	0	0	0	0	0	512	19	0	0	
6	0	0	0	0	0	0	534	19	0	0	
7	0	0	0	0	0	0	512	19	0	0	
8	0	0	0	0	0	0	531	19	0	0	
9	0	0	0	0	0	0	508	18	0	0	
10	0	0	0	0	0	0	521	19	0	0	
11	0	0	0	0	0	0	497	17	0	0	
12	0	0	0	0	0	0	568	22	0	0	
13	0	0	0	0	0	0	626	24	0	0	
14	0	0	0	0	0	0	625	24	0	0	
15	0	0	0	0	0	0	527	19	0	0	
0	0	0	0	0	0	0	543	19	0	0	
1	0	0	0	0	0	0	508	7	0	0	
2	0	0	0	0	0	0	523	19	0	0	
3	0	0	0	0	0	0	502	11	0	0	
4	0	0	0	0	0	0	520	19	0	0	
5	0	0	0	0	0	0	499	18	0	0	
6	0	0	0	0	0	0	519	19	0	0	
7	0	0	0	0	0	0	499	17	0	0	
8	0	0	0	0	0	0	519	19	0	0	
9	0	0	0	0	0	0	499	18	0	0	
10	0	0	0	0	0	0	521	19	0	0	
11	0	0	0	0	0	0	499	18	0	0	
12	0	0	0	0	0	0	521	19	0	0	
13	0	0	0	0	0	0	499	18	0	0	
14	0	0	0	0	0	0	521	19	0	0	
15	0	0	0	0	0	0	499	18	0	0	
0	0	0	0	0	0	0	523	19	0	0	
1	0	0	0	0	0	0	504	18	0	0	
2	0	0	0	0	0	0	527	19	0	0	
3	0	0	0	0	0	0	505	18	0	0	
4	0	0	0	0	0	0	529	19	0	0	
5	0	0	0	0	0	0	508	19	0	0	
6	0	0	0	0	0	0	532	19	0	0	
7	0	0	0	0	0	0	512	19	0	0	
8	0	0	0	0	0	0	536	19	0	0	
9	0	0	0	0	0	0	513	19	0	0	
10	0	0	0	0	0	0	535	19	0	0	
11	0	0	0	0	0	0	510	19	0	0	
12	0	0	0	0	0	0	529	19	0	0	
13	0	0	0	0	0	0	507	18	0	0	
14	0	0	0	0	0	0	527	19	0	0	
15	0	0	0	0	0	0	502	18	0	0	
0	0	0	0	0	0	0	526	19	0	0	
1	0	0	0	0	0	0	500	18	0	0	
2	0	0	0	0	0	0	523	19	0	0	
3	0	0	0	0	0	0	504	18	0	0	
4	0	0	0	0	0	0	529	19	0	0	
5	0	0	0	0	0	0	504	18	0	0	
6	0	0	0	0	0	0	527	19	0	0	
7	0	0	0	0	0	0	505	18	0	0	
8	0	0	0	0	0	0	529	19	0	0	
9	0	0	0	0	0	0	505	18	0	0	
10	0	0	0	0	0	0	529	19	0	0	
11	0	0	0	0	0	0	507	18	0	0	
12	0	0	0	0	0	0	528	19	0	0	
13	0	0	0	0	0	0	504	18	0	0	
14	0	0	0	0	0	0	527	19	0	0	
15	0	0	0	0	0	0	504	18	0	0	
0	0	0	0	0	0	0	526	19	0	0	
1	0	0	0	0	0	0	504	18	0	0	
2	0	0	0	0	0	0	527	19	0	0	
3	0	0	0	0	0	0	500	18	0	0	
4	0	0	0	0	0	0	526	19	0	0	
5	0	0	0	0	0	0	504	18	0	0	
6	0	0	0	0	0	0	527	19	0	0	
7	0	0	0	0	0	0	504	18	0	0	
8	0	0	0	0	0	0	527	19	0	0	
9	0	0	0	0	0	0	504	7	0	0	
10	0	0	0	0	0	0	529	19	0	0	
11	0	0	0	0	0	0	505	18	0	0	
12	0	0	0	0	0	0	531	19	0	0	
13	0	0	0	0	0	0	507	18	0	0	
14	0	0	0	0	0	0	529	7	0	0	
15	0	0	0	0	0	0	508	18	0	0	
0	0	0	0	0	0	0	536	19	0	0	
1	0	0	0	0	0	0	512	19	0	0	
2	0	0	0	0	0	0	536	19	0	0	
3	0	0	0	0	0	0	508	18	0	0	
4	0	0	0	0	0	0	531	19	0	0	
5	0	0	0	0	0	0	504	18	0	0	
6	0	0	0	0	0	0	527	19	0	0	
7	0	0	0	0	0	0	505	18	0	0	
8	0	0	0	0	0	0	529	19	0	0	
9	0	0	0	0	0	0	504	18	0	0	
10	0	0	0	0	0	0	524	19	0	0	
11	0	0	0	0	0	0	492	17	0	0	
12	0	0	0	0	0	0	531	19	0	0	
13	0	0	0	0	0	0	568	22	0	0	
14	0	0	0	0	0	0	630	24	0	0	
15	0	0	0	0	0	0	543	19	0	0	
0	0	0	0	0	0	0	535	19	0	0	
1	0	0	0	0	0	0	515	19	0	0	
2	0	0	0	0	0	0	526	19	0	0	
3	0	0	0	0	0	0	502	18	0	0	
4	0	0	0	0	0	0	527	19	0	0	
5	0	0	0	0	0	0	503	18	0	0	
6	0	0	0	0	0	0	527	19	0	0	
7	0	0	0	0	0	0	502	18	0	0	
8	0	0	0	0	0	0	529	19	0	0	
9	0	0	0	0	0	0	504	18	0	0	
10	0	0	0	0	0	0	531	19	0	0	
11	0	0	0	0	0	0	505	18	0	0	
12	0	0	0	0	0	0	531	19	0	0	
13	0	0	0	0	0	0	508	18	0	0	
14	0	0	0	0	0	0	535	19	0	0	
15	0	0	0	0	0	0	508	18	0	0	
0	0	0	0	0	0	0	536	19	0	0	
1	0	0	0	0	0	0	511	19	0	0	
2	0	0	0	0	0	0	537	19	0	0	
3	0	0	0	0	0	0	515	19	0	0	
4	0	0	0	0	0	0	541	19	0	0	
5	0	0	0	0	0	0	516	19	0	0	
6	0	0	0	0	0	0	543	19	0	0	
7	0	0	0	0	0	0	519	7	0	0	
8	0	0	0	0	0	0	543	20	0	0	
9	0	0	0	0	0	0	519	19	0	0	
10	0	0	0	0	0	0	546	20	0	0	
11	0	0	0	0	0	0	519	19	0	0	
12	0	0	0	0	0	0	544	20	0	0	
13	0	0	0	0	0	0	515	19	0	0	
14	0	0	0	0	0	0	539	19	0	0	
15	0	0	0	0	0	0	510	19	0	0	
0	0	0	0	0	0	0	534	19	0	0	
1	0	0	0	0	0	0	508	18	0	0	
2	0	0	0	0	0	0	531	19	0	0	
3	0	0	0	0	0	0	507	18	0	0	
4	0	0	0	0	0	0	534	19	0	0	
5	0	0	0	0	0	0	507	18	0	0	
6	0	0	0	0	0	0	534	19	0	0	
7	0	0	0	0	0	0	508	18	0	0	
8	0	0	0	0	0	0	536	19	0	0	
9	0	0	0	0	0	0	510	19	0	0	
10	0	0	0	0	0	0	537	19	0	0	
11	0	0	0	0	0	0	512	19	0	0	
12	0	0	0	0	0	0	540	7	0	0	
13	0	0	0	0	0	0	515	7	0	0	
14	0	0	0	0	0	0	541	19	0	0	
15	0	0	0	0	0	0	515	19	0	0	
0	0	0	0	0	0	0	542	19	0	0	
1	0	0	0	0	0	0	515	19	0	0	
2	0	0	0	0	0	0	542	19	0	0	
3	0	0	0	0	0	0	515	19	0	0	
4	0	0	0	0	0	0	540	19	0	0	
5	0	0	0	0	0	0	515	19	0	0	
6	0	0	0	0	0	0	543	19	0	0	
7	0	0	0	0	0	0	516	19	0	0	
8	0	0	0	0	0	0	545	20	0	0	
9	0	0	0	0	0	0	518	19	0	0	
10	0	0	0	0	0	0	543	20	0	0	
11	0	0	0	0	0	0	518	19	0	0	
12	0	0	0	0	0	0	547	20	0	0	
13	0	0	0	0	0	0	524	19	0	0	
14	0	0	0	0	0	0	551	20	0	0	
15	0	0	0	0	0	0	523	19	0	0	
0	0	0	0	0	0	0	551	20	0	0	
1	0	0	0	0	0	0	520	19	0	0	
2	0	0	0	0	0	0	545	20	0	0	
3	0	0	0	0	0	0	516	19	0	0	
4	0	0	0	0	0	0	543	19	0	0	
5	0	0	0	0	0	0	515	19	0	0	
6	0	0	0	0	0	0	543	19	0	0	
7	0	0	0	0	0	0	509	19	0	0	
8	0	0	0	0	0	0	529	19	0	0	
9	0	0	0	0	0	0	526	19	0	0	
10	0	0	0	0	0	0	628	24	0	0	
11	0	0	0	0	0	0	624	24	0	0	
12	0	0	0	0	0	0	575	22	0	0	
13	0	0	0	0	0	0	524	19	0	0	
14	0	0	0	0	0	0	546	20	0	0	
15	0	0	0	0	0	0	507	18	0	0	
0	0	0	0	0	0	0	534	7	0	0	
1	0	0	0	0	0	0	504	7	0	0	
2	0	0	0	0	0	0	536	19	0	0	
3	0	0	0	0	0	0	505	18	0	0	
4	0	0	0	0	0	0	534	19	0	0	
5	0	0	0	0	0	0	507	18	0	0	
6	0	0	0	0	0	0	535	19	0	0	
7	0	0	0	0	0	0	508	18	0	0	
8	0	0	0	0	0	0	537	19	0	0	
9	0	0	0	0	0	0	512	19	0	0	
10	0	0	0	0	0	0	542	19	0	0	
11	0	0	0	0	0	0	511	19	0	0	
12	0	0	0	0	0	0	540	19	0	0	
13	0	0	0	0	0	0	512	19	0	0	
14	0	0	0	0	0	0	543	19	0	0	
15	0	0	0	0	0	0	516	19	0	0	
0	0	0	0	0	0	0	545	20	0	0	
1	0	0	0	0	0	0	519	19	0	0	
2	0	0	0	0	0	0	551	20	0	0	
3	0	0	0	0	0	0	524	19	0	0	
4	0	0	0	0	0	0	555	20	0	0	
5	0	0	0	0	0	0	529	19	0	0	
6	0	0	0	0	0	0	558	20	0	0	
7	0	0	0	0	0	0	527	19	0	0	
8	0	0	0	0	0	0	556	20	0	0	
9	0	0	0	0	0	0	524	19	0	0	
10	0	0	0	0	0	0	551	20	0	0	
11	0	0	0	0	0	0	519	19	0	0	
12	0	0	0	0	0	0	548	20	0	0	
13	0	0	0	0	0	0	519	19	0	0	
14	0	0	0	0	0	0	547	20	0	0	
15	0	0	0	0	0	0	516	19	0	0	
0	0	0	0	0	0	0	545	20	0	0	
1	0	0	0	0	0	0	513	19	0	0	
2	0	0	0	0	0	0	543	19	0	0	
3	0	0	0	0	0	0	515	19	0	0	
4	0	0	0	0	0	0	545	7	0	0	
5	0	0	0	0	0	0	518	19	0	0	
6	0	0	0	0	0	0	547	20	0	0	
7	0	0	0	0	0	0	519	19	0	0	
8	0	0	0	0	0	0	548	20	0	0	
9	0	0	0	0	0	0	519	19	0	0	
10	0	0	0	0	0	0	548	20	0	0	
11	0	0	0	0	0	0	518	7	0	0	
12	0	0	0	0	0	0	547	20	0	0	
13	0	0	0	0	0	0	515	19	0	0	
14	0	0	0	0	0	0	545	20	0	0	
15	0	0	0	0	0	0	515	19	0	0	
0	0	0	0	0	0	0	547	20	0	0	
1	0	0	0	0	0	0	515	19	0	0	
2	0	0	0	0	0	0	545	20	0	0	
3	0	0	0	0	0	0	516	19	0	0	
4	0	0	0	0	0	0	546	20	0	0	
5	0	0	0	0	0	0	515	19	0	0	
6	0	0	0	0	0	0	543	20	0	0	
7	0	0	0	0	0	0	515	19	0	0	
8	0	0	0	0	0	0	546	20	0	0	
9	0	0	0	0	0	0	515	19	0	0	
10	0	0	0	0	0	0	543	20	0	0	
11	0	0	0	0	0	0	519	19	0	0	
12	0	0	0	0	0	0	550	20	0	0	
13	0	0	0	0	0	0	519	19	0	0	
14	0	0	0	0	0	0	550	7	0	0	
15	0	0	0	0	0	0	518	19	0	0	
0	0	0	0	0	0	0	543	20	0	0	
1	0	0	0	0	0	0	512	19	0	0	
2	0	0	0	0	0	0	542	19	0	0	
3	0	0	0	0	0	0	512	19	0	0	
4	0	0	0	0	0	0	543	19	0	0	
5	0	0	0	0	0	0	510	19	0	0	
6	0	0	0	0	0	0	531	19	0	0	
7	0	0	0	0	0	0	499	17	0	0	
8	0	0	0	0	0	0	579	22	0	0	
9	0	0	0	0	0	0	627	24	0	0	
10	0	0	0	0	0	0	639	25	0	0	
11	0	0	0	0	0	0	534	19	0	0	
12	0	0	0	0	0	0	560	20	0	0	
13	0	0	0	0	0	0	515	19	0	0	
14	0	0	0	0	0	0	537	7	0	0	
15	0	0	0	0	0	0	508	18	0	0	
0	0	0	0	0	0	0	536	19	0	0	
1	0	0	0	0	0	0	504	18	0	0	
2	0	0	0	0	0	0	536	19	0	0	
3	0	0	0	0	0	0	504	18	0	0	
4	0	0	0	0	0	0	536	19	0	0	
5	0	0	0	0	0	0	504	18	0	0	
6	0	0	0	0	0	0	536	19	0	0	
7	0	0	0	0	0	0	507	18	0	0	
8	0	0	0	0	0	0	537	19	0	0	
9	0	0	0	0	0	0	508	18	0	0	
10	0	0	0	0	0	0	539	19	0	0	
11	0	0	0	0	0	0	505	18	0	0	
12	0	0	0	0	0	0	536	19	0	0	
13	0	0	0	0	0	0	508	18	0	0	
14	0	0	0	0	0	0	540	19	0	0	
15	0	0	0	0	0	0	511	19	0	0	
0	0	0	0	0	0	0	543	19	0	0	
1	0	0	0	0	0	0	515	19	0	0	
2	0	0	0	0	0	0	548	20	0	0	
3	0	0	0	0	0	0	515	7	0	0	
4	0	0	0	0	0	0	551	20	0	0	
5	0	0	0	0	0	0	519	19	0	0	
6	0	0	0	0	0	0	548	20	0	0	
7	0	0	0	0	0	0	513	19	0	0	
8	0	0	0	0	0	0	543	20	0	0	
9	0	0	0	0	0	0	511	19	0	0	
10	0	0	0	0	0	0	542	19	0	0	
11	0	0	0	0	0	0	509	19	0	0	
12	0	0	0	0	0	0	540	19	0	0	
13	0	0	0	0	0	0	508	18	0	0	
14	0	0	0	0	0	0	540	19	0	0	
15	0	0	0	0	0	0	508	18	0	0	
0	0	0	0	0	0	0	539	19	0	0	
1	0	0	0	0	0	0	507	18	0	0	
2	0	0	0	0	0	0	539	19	0	0	
3	0	0	0	0	0	0	507	18	0	0	
4	0	0	0	0	0	0	540	19	0	0	
5	0	0	0	0	0	0	508	18	0	0	
6	0	0	0	0	0	0	542	19	0	0	
7	0	0	0	0	0	0	512	19	0	0	
8	0	0	0	0	0	0	547	20	0	0	
9	0	0	0	0	0	0	515	19	0	0	
10	0	0	0	0	0	0	545	20	0	0	
11	0	0	0	0	0	0	512	19	0	0	
12	0	0	0	0	0	0	544	20	0	0	
13	0	0	0	0	0	0	511	19	0	0	
14	0	0	0	0	0	0	543	19	0	0	
15	0	0	0	0	0	0	510	19	0	0	
0	0	0	0	0	0	0	542	19	0	0	
1	0	0	0	0	0	0	506	18	0	0	
2	0	0	0	0	0	0	539	19	0	0	
3	0	0	0	0	0	0	504	7	0	0	
4	0	0	0	0	0	0	540	19	0	0	
5	0	0	0	0	0	0	507	18	0	0	
6	0	0	0	0	0	0	541	19	0	0	
7	0	0	0	0	0	0	507	18	0	0	
8	0	0	0	0	0	0	537	19	0	0	
9	0	0	0	0	0	0	505	18	0	0	
10	0	0	0	0	0	0	541	19	0	0	
11	0	0	0	0	0	0	513	19	0	0	
12	0	0	0	0	0	0	545	20	0	0	
13	0	0	0	0	0	0	513	19	0	0	
14	0	0	0	0	0	0	543	20	0	0	
15	0	0	0	0	0	0	510	7	0	0	
0	0	0	0	0	0	0	540	19	0	0	
1	0	0	0	0	0	0	504	18	0	0	
2	0	0	0	0	0	0	538	19	0	0	
3	0	0	0	0	0	0	504	18	0	0	
4	0	0	0	0	0	0	536	19	0	0	
5	0	0	0	0	0	0	499	17	0	0	
6	0	0	0	0	0	0	524	19	0	0	
7	0	0	0	0	0	0	495	17	0	0	
8	0	0	0	0	0	0	591	23	0	0	
9	0	0	0	0	0	0	630	24	0	0	
10	0	0	0	0	0	0	618	24	0	0	
11	0	0	0	0	0	0	522	7	0	0	
12	0	0	0	0	0	0	553	20	0	0	
13	0	0	0	0	0	0	504	7	0	0	
14	0	0	0	0	0	0	532	7	0	0	
15	0	0	0	0	0	0	499	17	0	0	
0	0	0	0	0	0	0	532	19	0	0	
1	0	0	0	0	0	0	503	7	0	0	
2	0	0	0	0	0	0	534	19	0	0	
3	0	0	0	0	0	0	499	17	0	0	
4	0	0	0	0	0	0	536	19	0	0	
5	0	0	0	0	0	0	504	18	0	0	
6	0	0	0	0	0	0	537	19	0	0	
7	0	0	0	0	0	0	504	18	0	0	
8	0	0	0	0	0	0	537	19	0	0	
9	0	0	0	0	0	0	504	18	0	0	
10	0	0	0	0	0	0	539	19	0	0	
11	0	0	0	0	0	0	507	18	0	0	
12	0	0	0	0	0	0	540	19	0	0	
13	0	0	0	0	0	0	507	18	0	0	
14	0	0	0	0	0	0	543	19	0	0	
15	0	0	0	0	0	0	510	19	0	0	
0	0	0	0	0	0	0	547	20	0	0	
1	0	0	0	0	0	0	513	19	0	0	
2	0	0	0	0	0	0	549	20	0	0	
3	0	0	0	0	0	0	518	19	0	0	
4	0	0	0	0	0	0	552	20	0	0	
5	0	0	0	0	0	0	519	19	0	0	
6	0	0	0	0	0	0	552	20	0	0	
7	0	0	0	0	0	0	516	19	0	0	
8	0	0	0	0	0	0	547	20	0	0	
9	0	0	0	0	0	0	511	19	0	0	
10	0	0	0	0	0	0	543	19	0	0	
11	0	0	0	0	0	0	508	18	0	0	
12	0	0	0	0	0	0	542	19	0	0	
13	0	0	0	0	0	0	507	7	0	0	
14	0	0	0	0	0	0	542	19	0	0	
15	0	0	0	0	0	0	505	18	0	0	
0	0	0	0	0	0	0	540	19	0	0	
1	0	0	0	0	0	0	505	18	0	0	
2	0	0	0	0	0	0	540	19	0	0	
3	0	0	0	0	0	0	507	18	0	0	
4	0	0	0	0	0	0	540	19	0	0	
5	0	0	0	0	0	0	505	18	0	0	
6	0	0	0	0	0	0	543	19	0	0	
7	0	0	0	0	0	0	505	18	0	0	
8	0	0	0	0	0	0	542	19	0	0	
9	0	0	0	0	0	0	507	18	0	0	
10	0	0	0	0	0	0	542	19	0	0	
11	0	0	0	0	0	0	505	18	0	0	
12	0	0	0	0	0	0	542	19	0	0	
13	0	0	0	0	0	0	507	18	0	0	
14	0	0	0	0	0	0	542	19	0	0	
15	0	0	0	0	0	0	505	18	0	0	
0	0	0	0	0	0	0	542	19	0	0	
1	0	0	0	0	0	0	505	18	0	0	
2	0	0	0	0	0	0	542	19	0	0	
3	0	0	0	0	0	0	505	18	0	0	
4	0	0	0	0	0	0	540	19	0	0	
5	0	0	0	0	0	0	504	18	0	0	
6	0	0	0	0	0	0	540	19	0	0	
7	0	0	0	0	0	0	507	18	0	0	
8	0	0	0	0	0	0	541	19	0	0	
9	0	0	0	0	0	0	505	18	0	0	
10	0	0	0	0	0	0	543	20	0	0	
11	0	0	0	0	0	0	513	19	0	0	
12	0	0	0	0	0	0	548	20	0	0	
13	0	0	0	0	0	0	511	19	0	0	
14	0	0	0	0	0	0	545	20	0	0	
15	0	0	0	0	0	0	505	18	0	0	
0	0	0	0	0	0	0	537	19	0	0	
1	0	0	0	0	0	0	499	17	0	0	
2	0	0	0	0	0	0	534	19	0	0	
3	0	0	0	0	0	0	499	17	0	0	
4	0	0	0	0	0	0	532	19	0	0	
5	0	0	0	0	0	0	492	17	0	0	
6	0	0	0	0	0	0	517	19	0	0	
7	0	0	0	0	0	0	487	17	0	0	
8	0	0	0	0	0	0	590	23	0	0	
9	0	0	0	0	0	0	624	24	0	0	
10	0	0	0	0	0	0	611	24	0	0	
11	0	0	0	0	0	0	515	19	0	0	
12	0	0	0	0	0	0	550	20	0	0	
13	0	0	0	0	0	0	495	17	0	0	
14	0	0	0	0	0	0	527	19	0	0	
15	0	0	0	0	0	0	491	17	0	0	
0	0	0	0	0	0	0	524	19	0	0	
1	0	0	0	0	0	0	487	17	0	0	
2	0	0	0	0	0	0	524	19	0	0	
3	0	0	0	0	0	0	489	7	0	0	
4	0	0	0	0	0	0	527	19	0	0	
5	0	0	0	0	0	0	492	17	0	0	
6	0	0	0	0	0	0	527	19	0	0	
7	0	0	0	0	0	0	492	17	0	0	
8	0	0	0	0	0	0	527	19	0	0	
9	0	0	0	0	0	0	488	17	0	0	
10	0	0	0	0	0	0	527	19	0	0	
11	0	0	0	0	0	0	492	17	0	0	
12	0	0	0	0	0	0	531	19	0	0	
13	0	0	0	0	0	0	496	17	0	0	
14	0	0	0	0	0	0	531	19	0	0	
15	0	0	0	0	0	0	496	17	0	0	
0	0	0	0	0	0	0	536	19	0	0	
1	0	0	0	0	0	0	499	18	0	0	
2	0	0	0	0	0	0	537	19	0	0	
3	0	0	0	0	0	0	504	7	0	0	
4	0	0	0	0	0	0	540	19	0	0	
5	0	0	0	0	0	0	504	18	0	0	
6	0	0	0	0	0	0	540	19	0	0	
7	0	0	0	0	0	0	499	18	0	0	
8	0	0	0	0	0	0	536	7	0	0	
9	0	0	0	0	0	0	496	17	0	0	
10	0	0	0	0	0	0	529	19	0	0	
11	0	0	0	0	0	0	492	17	0	0	
12	0	0	0	0	0	0	528	19	0	0	
13	0	0	0	0	0	0	492	17	0	0	
14	0	0	0	0	0	0	528	19	0	0	
15	0	0	0	0	0	0	492	17	0	0	
0	0	0	0	0	0	0	527	19	0	0	
1	0	0	0	0	0	0	492	17	0	0	
2	0	0	0	0	0	0	531	7	0	0	
3	0	0	0	0	0	0	496	17	0	0	
4	0	0	0	0	0	0	532	19	0	0	
5	0	0	0	0	0	0	496	17	0	0	
6	0	0	0	0	0	0	534	19	0	0	
7	0	0	0	0	0	0	496	17	0	0	
8	0	0	0	0	0	0	536	19	0	0	
9	0	0	0	0	0	0	499	18	0	0	
10	0	0	0	0	0	0	536	19	0	0	
11	0	0	0	0	0	0	500	18	0	0	
12	0	0	0	0	0	0	536	19	0	0	
13	0	0	0	0	0	0	497	17	0	0	
14	0	0	0	0	0	0	535	19	0	0	
15	0	0	0	0	0	0	496	17	0	0	
0	0	0	0	0	0	0	536	19	0	0	
1	0	0	0	0	0	0	499	17	0	0	
2	0	0	0	0	0	0	536	19	0	0	
3	0	0	0	0	0	0	497	17	0	0	
4	0	0	0	0	0	0	537	19	0	0	
5	0	0	0	0	0	0	502	18	0	0	
6	0	0	0	0	0	0	536	19	0	0	
7	0	0	0	0	0	0	504	18	0	0	
8	0	0	0	0	0	0	546	20	0	0	
9	0	0	0	0	0	0	507	7	0	0	
10	0	0	0	0	0	0	545	20	0	0	
11	0	0	0	0	0	0	507	7	0	0	
12	0	0	0	0	0	0	543	19	0	0	
13	0	0	0	0	0	0	499	18	0	0	
14	0	0	0	0	0	0	537	7	0	0	
15	0	0	0	0	0	0	503	7	0	0	
0	0	0	0	0	0	0	540	19	0	0	
1	0	0	0	0	0	0	499	17	0	0	
2	0	0	0	0	0	0	531	19	0	0	
3	0	0	0	0	0	0	487	17	0	0	
4	0	0	0	0	0	0	541	7	0	0	
5	0	0	0	0	0	0	563	21	0	0	
6	0	0	0	0	0	0	636	25	0	0	
7	0	0	0	0	0	0	536	19	0	0	
8	0	0	0	0	0	0	543	20	0	0	
9	0	0	0	0	0	0	512	7	0	0	
10	0	0	0	0	0	0	536	19	0	0	
11	0	0	0	0	0	0	499	17	0	0	
12	0	0	0	0	0	0	536	19	0	0	
13	0	0	0	0	0	0	499	18	0	0	
14	0	0	0	0	0	0	537	19	0	0	
15	0	0	0	0	0	0	499	18	0	0	
0	0	0	0	0	0	0	540	19	0	0	
1	0	0	0	0	0	0	502	18	0	0	
2	0	0	0	0	0	0	540	19	0	0	
3	0	0	0	0	0	0	504	18	0	0	
4	0	0	0	0	0	0	541	19	0	0	
5	0	0	0	0	0	0	505	18	0	0	
6	0	0	0	0	0	0	543	19	0	0	
7	0	0	0	0	0	0	504	18	0	0	
8	0	0	0	0	0	0	544	20	0	0	
9	0	0	0	0	0	0	508	18	0	0	
10	0	0	0	0	0	0	547	20	0	0	
11	0	0	0	0	0	0	512	19	0	0	
12	0	0	0	0	0	0	551	20	0	0	
13	0	0	0	0	0	0	513	19	0	0	
14	0	0	0	0	0	0	556	20	0	0	
15	0	0	0	0	0	0	518	19	0	0	
0	0	0	0	0	0	0	558	20	0	0	
1	0	0	0	0	0	0	523	19	0	0	
2	0	0	0	0	0	0	561	21	0	0	
3	0	0	0	0	0	0	520	19	0	0	
4	0	0	0	0	0	0	560	20	0	0	
5	0	0	0	0	0	0	518	7	0	0	
6	0	0	0	0	0	0	553	20	0	0	
7	0	0	0	0	0	0	513	7	0	0	
8	0	0	0	0	0	0	551	20	0	0	
9	0	0	0	0	0	0	511	19	0	0	
10	0	0	0	0	0	0	551	20	0	0	
11	0	0	0	0	0	0	513	19	0	0	
12	0	0	0	0	0	0	555	20	0	0	
13	0	0	0	0	0	0	515	19	0	0	
14	0	0	0	0	0	0	553	20	0	0	
15	0	0	0	0	0	0	518	19	0	0	
0	0	0	0	0	0	0	556	7	0	0	
1	0	0	0	0	0	0	519	19	0	0	
2	0	0	0	0	0	0	559	20	0	0	
3	0	0	0	0	0	0	518	19	0	0	
4	0	0	0	0	0	0	556	20	0	0	
5	0	0	0	0	0	0	516	19	0	0	
6	0	0	0	0	0	0	556	20	0	0	
7	0	0	0	0	0	0	515	7	0	0	
8	0	0	0	0	0	0	555	20	0	0	
9	0	0	0	0	0	0	516	19	0	0	
10	0	0	0	0	0	0	555	20	0	0	
11	0	0	0	0	0	0	515	19	0	0	
12	0	0	0	0	0	0	551	20	0	0	
13	0	0	0	0	0	0	513	19	0	0	
14	0	0	0	0	0	0	552	20	0	0	
15	0	0	0	0	0	0	515	19	0	0	
0	0	0	0	0	0	0	553	20	0	0	
1	0	0	0	0	0	0	515	19	0	0	
2	0	0	0	0	0	0	558	20	0	0	
3	0	0	0	0	0	0	521	19	0	0	
4	0	0	0	0	0	0	559	20	0	0	
5	0	0	0	0	0	0	521	19	0	0	
6	0	0	0	0	0	0	556	20	0	0	
7	0	0	0	0	0	0	515	19	0	0	
8	0	0	0	0	0	0	550	20	0	0	
9	0	0	0	0	0	0	507	18	0	0	
10	0	0	0	0	0	0	548	20	0	0	
11	0	0	0	0	0	0	510	19	0	0	
12	0	0	0	0	0	0	547	7	0	0	
13	0	0	0	0	0	0	504	18	0	0	
14	0	0	0	0	0	0	532	19	0	0	
15	0	0	0	0	0	0	510	19	0	0	
0	0	0	0	0	0	0	620	24	0	0	
1	0	0	0	0	0	0	627	24	0	0	
2	0	0	0	0	0	0	604	24	0	0	
3	0	0	0	0	0	0	519	19	0	0	
4	0	0	0	0	0	0	556	7	0	0	
5	0	0	0	0	0	0	500	18	0	0	
6	0	0	0	0	0	0	539	19	0	0	
7	0	0	0	0	0	0	499	18	0	0	
8	0	0	0	0	0	0	540	19	0	0	
9	0	0	0	0	0	0	499	18	0	0	
10	0	0	0	0	0	0	540	19	0	0	
11	0	0	0	0	0	0	499	18	0	0	
12	0	0	0	0	0	0	541	19	0	0	
13	0	0	0	0	0	0	503	18	0	0	
14	0	0	0	0	0	0	542	19	0	0	
15	0	0	0	0	0	0	502	18	0	0	
0	0	0	0	0	0	0	543	19	0	0	
1	0	0	0	0	0	0	504	18	0	0	
2	0	0	0	0	0	0	542	19	0	0	
3	0	0	0	0	0	0	504	18	0	0	
4	0	0	0	0	0	0	544	20	0	0	
5	0	0	0	0	0	0	504	18	0	0	
6	0	0	0	0	0	0	545	20	0	0	
7	0	0	0	0	0	0	508	18	0	0	
8	0	0	0	0	0	0	549	20	0	0	
9	0	0	0	0	0	0	510	19	0	0	
10	0	0	0	0	0	0	551	20	0	0	
11	0	0	0	0	0	0	513	19	0	0	
12	0	0	0	0	0	0	555	7	0	0	
13	0	0	0	0	0	0	515	19	0	0	
14	0	0	0	0	0	0	553	20	0	0	
15	0	0	0	0	0	0	511	19	0	0	
0	0	0	0	0	0	0	548	20	0	0	
1	0	0	0	0	0	0	505	18	0	0	
2	0	0	0	0	0	0	543	19	0	0	
3	0	0	0	0	0	0	503	7	0	0	
4	0	0	0	0	0	0	543	19	0	0	
5	0	0	0	0	0	0	503	18	0	0	
6	0	0	0	0	0	0	542	19	0	0	
7	0	0	0	0	0	0	504	18	0	0	
8	0	0	0	0	0	0	543	19	0	0	
9	0	0	0	0	0	0	504	18	0	0	
10	0	0	0	0	0	0	543	20	0	0	
11	0	0	0	0	0	0	503	18	0	0	
12	0	0	0	0	0	0	543	20	0	0	
13	0	0	0	0	0	0	504	18	0	0	
14	0	0	0	0	0	0	547	20	0	0	
15	0	0	0	0	0	0	508	19	0	0	
0	0	0	0	0	0	0	548	20	0	0	
1	0	0	0	0	0	0	510	19	0	0	
2	0	0	0	0	0	0	550	20	0	0	
3	0	0	0	0	0	0	508	18	0	0	
4	0	0	0	0	0	0	550	20	0	0	
5	0	0	0	0	0	0	511	19	0	0	
6	0	0	0	0	0	0	551	20	0	0	
7	0	0	0	0	0	0	511	19	0	0	
8	0	0	0	0	0	0	551	20	0	0	
9	0	0	0	0	0	0	511	19	0	0	
10	0	0	0	0	0	0	551	20	0	0	
11	0	0	0	0	0	0	511	7	0	0	
12	0	0	0	0	0	0	551	7	0	0	
13	0	0	0	0	0	0	510	7	0	0	
14	0	0	0	0	0	0	551	20	0	0	
15	0	0	0	0	0	0	511	19	0	0	
0	0	0	0	0	0	0	555	20	0	0	
1	0	0	0	0	0	0	519	19	0	0	
2	0	0	0	0	0	0	556	20	0	0	
3	0	0	0	0	0	0	518	19	0	0	
4	0	0	0	0	0	0	556	20	0	0	
5	0	0	0	0	0	0	511	19	0	0	
6	0	0	0	0	0	0	548	20	0	0	
7	0	0	0	0	0	0	508	7	0	0	
8	0	0	0	0	0	0	549	20	0	0	
9	0	0	0	0	0	0	505	18	0	0	
10	0	0	0	0	0	0	547	20	0	0	
11	0	0	0	0	0	0	499	18	0	0	
12	0	0	0	0	0	0	531	19	0	0	
13	0	0	0	0	0	0	504	18	0	0	
14	0	0	0	0	0	0	615	24	0	0	
15	0	0	0	0	0	0	633	24	0	0	
0	0	0	0	0	0	0	614	24	0	0	
1	0	0	0	0	0	0	519	19	0	0	
2	0	0	0	0	0	0	558	20	0	0	
3	0	0	0	0	0	0	499	18	0	0	
4	0	0	0	0	0	0	539	19	0	0	
5	0	0	0	0	0	0	496	17	0	0	
6	0	0	0	0	0	0	537	7	0	0	
7	0	0	0	0	0	0	497	17	0	0	
8	0	0	0	0	0	0	536	19	0	0	
9	0	0	0	0	0	0	496	17	0	0	
10	0	0	0	0	0	0	537	19	0	0	
11	0	0	0	0	0	0	497	17	0	0	
12	0	0	0	0	0	0	539	19	0	0	
13	0	0	0	0	0	0	499	17	0	0	
14	0	0	0	0	0	0	539	19	0	0	
15	0	0	0	0	0	0	497	17	0	0	
0	0	0	0	0	0	0	540	19	0	0	
1	0	0	0	0	0	0	499	17	0	0	
2	0	0	0	0	0	0	542	19	0	0	
3	0	0	0	0	0	0	503	7	0	0	
4	0	0	0	0	0	0	543	19	0	0	
5	0	0	0	0	0	0	504	18	0	0	
6	0	0	0	0	0	0	547	20	0	0	
7	0	0	0	0	0	0	508	19	0	0	
8	0	0	0	0	0	0	551	20	0	0	
9	0	0	0	0	0	0	511	19	0	0	
10	0	0	0	0	0	0	553	20	0	0	
11	0	0	0	0	0	0	513	19	0	0	
12	0	0	0	0	0	0	553	20	0	0	
13	0	0	0	0	0	0	510	19	0	0	
14	0	0	0	0	0	0	550	20	0	0	
15	0	0	0	0	0	0	508	18	0	0	
0	0	0	0	0	0	0	545	7	0	0	
1	0	0	0	0	0	0	505	18	0	0	
2	0	0	0	0	0	0	545	20	0	0	
3	0	0	0	0	0	0	504	18	0	0	
4	0	0	0	0	0	0	545	20	0	0	
5	0	0	0	0	0	0	504	18	0	0	
6	0	0	0	0	0	0	544	20	0	0	
7	0	0	0	0	0	0	505	18	0	0	
8	0	0	0	0	0	0	547	20	0	0	
9	0	0	0	0	0	0	505	18	0	0	
10	0	0	0	0	0	0	547	20	0	0	
11	0	0	0	0	0	0	508	7	0	0	
12	0	0	0	0	0	0	550	20	0	0	
13	0	0	0	0	0	0	508	18	0	0	
14	0	0	0	0	0	0	550	20	0	0	
15	0	0	0	0	0	0	507	18	0	0	
0	0	0	0	0	0	0	547	20	0	0	
1	0	0	0	0	0	0	504	18	0	0	
2	0	0	0	0	0	0	547	20	0	0	
3	0	0	0	0	0	0	505	18	0	0	
4	0	0	0	0	0	0	547	20	0	0	
5	0	0	0	0	0	0	504	18	0	0	
6	0	0	0	0	0	0	547	20	0	0	
7	0	0	0	0	0	0	504	18	0	0	
8	0	0	0	0	0	0	545	20	0	0	
9	0	0	0	0	0	0	504	18	0	0	
10	0	0	0	0	0	0	547	20	0	0	
11	0	0	0	0	0	0	505	18	0	0	
12	0	0	0	0	0	0	545	20	0	0	
13	0	0	0	0	0	0	504	18	0	0	
14	0	0	0	0	0	0	545	20	0	0	
15	0	0	0	0	0	0	504	18	0	0	
0	0	0	0	0	0	0	543	20	0	0	
1	0	0	0	0	0	0	504	18	0	0	
2	0	0	0	0	0	0	550	20	0	0	
3	0	0	0	0	0	0	508	19	0	0	
4	0	0	0	0	0	0	551	20	0	0	
5	0	0	0	0	0	0	508	18	0	0	
6	0	0	0	0	0	0	547	20	0	0	
7	0	0	0	0	0	0	504	18	0	0	
8	0	0	0	0	0	0	542	19	0	0	
9	0	0	0	0	0	0	499	7	0	0	
10	0	0	0	0	0	0	542	19	0	0	
11	0	0	0	0	0	0	498	17	0	0	
12	0	0	0	0	0	0	537	19	0	0	
13	0	0	0	0	0	0	483	17	0	0	
14	0	0	0	0	0	0	521	19	0	0	
15	0	0	0	0	0	0	534	12	0	0	
0	0	0	0	0	0	0	668	27	0	0	
1	0	0	0	0	0	0	608	9	0	0	
2	0	0	0	0	0	0	564	21	0	0	
3	0	0	0	0	0	0	519	19	0	0	
4	0	0	0	0	0	0	540	7	0	0	
5	0	0	0	0	0	0	492	17	0	0	
6	0	0	0	0	0	0	534	19	0	0	
7	0	0	0	0	0	0	492	17	0	0	
8	0	0	0	0	0	0	534	19	0	0	
9	0	0	0	0	0	0	492	17	0	0	
10	0	0	0	0	0	0	535	19	0	0	
11	0	0	0	0	0	0	494	17	0	0	
12	0	0	0	0	0	0	536	19	0	0	
13	0	0	0	0	0	0	495	17	0	0	
14	0	0	0	0	0	0	537	19	0	0	
15	0	0	0	0	0	0	496	17	0	0	
0	0	0	0	0	0	0	536	19	0	0	
1	0	0	0	0	0	0	496	17	0	0	
2	0	0	0	0	0	0	540	19	0	0	
3	0	0	0	0	0	0	499	17	0	0	
4	0	0	0	0	0	0	542	19	0	0	
5	0	0	0	0	0	0	500	18	0	0	
6	0	0	0	0	0	0	544	20	0	0	
7	0	0	0	0	0	0	504	18	0	0	
8	0	0	0	0	0	0	548	7	0	0	
9	0	0	0	0	0	0	508	18	0	0	
10	0	0	0	0	0	0	551	20	0	0	
11	0	0	0	0	0	0	508	19	0	0	
12	0	0	0	0	0	0	551	20	0	0	
13	0	0	0	0	0	0	508	19	0	0	
14	0	0	0	0	0	0	547	20	0	0	
15	0	0	0	0	0	0	505	18	0	0	
0	0	0	0	0	0	0	547	20	0	0	
1	0	0	0	0	0	0	504	18	0	0	
2	0	0	0	0	0	0	545	20	0	0	
3	0	0	0	0	0	0	497	7	0	0	
4	0	0	0	0	0	0	535	7	0	0	
5	0	0	0	0	0	0	487	17	0	0	
6	0	0	0	0	0	0	529	19	0	0	
7	0	0	0	0	0	0	485	17	0	0	
8	0	0	0	0	0	0	527	19	0	0	
9	0	0	0	0	0	0	483	17	0	0	
10	0	0	0	0	0	0	526	19	0	0	
11	0	0	0	0	0	0	483	17	0	0	
12	0	0	0	0	0	0	524	19	0	0	
13	0	0	0	0	0	0	479	17	0	0	
14	0	0	0	0	0	0	518	19	0	0	
15	0	0	0	0	0	0	473	16	0	0	
0	0	0	0	0	0	0	513	19	0	0	
1	0	0	0	0	0	0	470	16	0	0	
2	0	0	0	0	0	0	510	19	0	0	
3	0	0	0	0	0	0	464	15	0	0	
4	0	0	0	0	0	0	504	18	0	0	
5	0	0	0	0	0	0	460	15	0	0	
6	0	0	0	0	0	0	503	18	0	0	
7	0	0	0	0	0	0	459	15	0	0	
8	0	0	0	0	0	0	504	18	0	0	
9	0	0	0	0	0	0	462	15	0	0	
10	0	0	0	0	0	0	504	18	0	0	
11	0	0	0	0	0	0	455	15	0	0	
12	0	0	0	0	0	0	496	17	0	0	
13	0	0	0	0	0	0	449	15	0	0	
14	0	0	0	0	0	0	487	17	0	0	
15	0	0	0	0	0	0	443	15	0	0	
0	0	0	0	0	0	0	483	17	0	0	
1	0	0	0	0	0	0	441	15	0	0	
2	0	0	0	0	0	0	483	17	0	0	
3	0	0	0	0	0	0	439	15	0	0	
4	0	0	0	0	0	0	483	17	0	0	
5	0	0	0	0	0	0	441	6	0	0	
6	0	0	0	0	0	0	480	17	0	0	
7	0	0	0	0	0	0	435	15	0	0	
8	0	0	0	0	0	0	473	16	0	0	
9	0	0	0	0	0	0	430	15	0	0	
10	0	0	0	0	0	0	468	16	0	0	
11	0	0	0	0	0	0	423	15	0	0	
12	0	0	0	0	0	0	466	16	0	0	
13	0	0	0	0	0	0	419	14	0	0	
14	0	0	0	0	0	0	452	15	0	0	
15	0	0	0	0	0	0	396	4	0	0	
0	0	0	0	0	0	0	436	15	0	0	
1	0	0	0	0	0	0	432	15	0	0	
2	0	0	0	0	0	0	518	19	0	0	
3	0	0	0	0	0	0	444	15	0	0	
4	0	0	0	0	0	0	435	15	0	0	
5	0	0	0	0	0	0	401	14	0	0	
6	0	0	0	0	0	0	435	15	0	0	
7	0	0	0	0	0	0	387	4	0	0	
8	0	0	0	0	0	0	433	15	0	0	
9	0	0	0	0	0	0	391	13	0	0	
10	0	0	0	0	0	0	435	15	0	0	
11	0	0	0	0	0	0	396	13	0	0	
12	0	0	0	0	0	0	440	15	0	0	
13	0	0	0	0	0	0	404	14	0	0	
14	0	0	0	0	0	0	452	15	0	0	
15	0	0	0	0	0	0	415	14	0	0	
0	0	0	0	0	0	0	458	15	0	0	
1	0	0	0	0	0	0	412	14	0	0	
2	0	0	0	0	0	0	448	15	0	0	
3	0	0	0	0	0	0	398	4	0	0	
4	0	0	0	0	0	0	428	15	0	0	
5	0	0	0	0	0	0	384	4	0	0	
6	0	0	0	0	0	0	423	15	0	0	
7	0	0	0	0	0	0	379	12	0	0	
8	0	0	0	0	0	0	415	14	0	0	
9	0	0	0	0	0	0	375	12	0	0	
10	0	0	0	0	0	0	420	14	0	0	
11	0	0	0	0	0	0	384	12	0	0	
12	0	0	0	0	0	0	430	15	0	0	
13	0	0	0	0	0	0	396	13	0	0	
14	0	0	0	0	0	0	440	15	0	0	
15	0	0	0	0	0	0	399	13	0	0	
0	0	0	0	0	0	0	448	15	0	0	
1	0	0	0	0	0	0	415	14	0	0	
2	0	0	0	0	0	0	455	15	0	0	
3	0	0	0	0	0	0	411	14	0	0	
4	0	0	0	0	0	0	448	15	0	0	
5	0	0	0	0	0	0	408	14	0	0	
6	0	0	0	0	0	0	448	15	0	0	
7	0	0	0	0	0	0	409	14	0	0	
8	0	0	0	0	0	0	451	15	0	0	
9	0	0	0	0	0	0	411	14	0	0	
10	0	0	0	0	0	0	454	6	0	0	
11	0	0	0	0	0	0	419	14	0	0	
12	0	0	0	0	0	0	470	16	0	0	
13	0	0	0	0	0	0	436	15	0	0	
14	0	0	0	0	0	0	489	7	0	0	
15	0	0	0	0	0	0	460	15	0	0	
0	0	0	0	0	0	0	511	19	0	0	
1	0	0	0	0	0	0	478	17	0	0	
2	0	0	0	0	0	0	524	19	0	0	
3	0	0	0	0	0	0	487	17	0	0	
4	0	0	0	0	0	0	535	19	0	0	
5	0	0	0	0	0	0	499	17	0	0	
6	0	0	0	0	0	0	542	19	0	0	
7	0	0	0	0	0	0	500	18	0	0	
8	0	0	0	0	0	0	543	7	0	0	
9	0	0	0	0	0	0	499	17	0	0	
10	0	0	0	0	0	0	540	19	0	0	
11	0	0	0	0	0	0	496	17	0	0	
12	0	0	0	0	0	0	536	19	0	0	
13	0	0	0	0	0	0	492	17	0	0	
14	0	0	0	0	0	0	537	19	0	0	
15	0	0	0	0	0	0	499	17	0	0	
0	0	0	0	0	0	0	540	19	0	0	
1	0	0	0	0	0	0	499	17	0	0	
2	0	0	0	0	0	0	542	19	0	0	
3	0	0	0	0	0	0	499	18	0	0	
4	0	0	0	0	0	0	545	20	0	0	
5	0	0	0	0	0	0	507	18	0	0	
6	0	0	0	0	0	0	551	20	0	0	
7	0	0	0	0	0	0	512	19	0	0	
8	0	0	0	0	0	0	558	20	0	0	
9	0	0	0	0	0	0	519	19	0	0	
10	0	0	0	0	0	0	568	22	0	0	
11	0	0	0	0	0	0	551	7	0	0	
12	0	0	0	0	0	0	679	28	0	0	
13	0	0	0	0	0	0	696	28	0	0	
14	0	0	0	0	0	0	700	28	0	0	
15	0	0	0	0	0	0	632	24	0	0	
0	0	0	0	0	0	0	696	28	0	0	
1	0	0	0	0	0	0	655	11	0	0	
2	0	0	0	0	0	0	716	30	0	0	
3	0	0	0	0	0	0	689	28	0	0	
4	0	0	0	0	0	0	745	31	0	0	
5	0	0	0	0	0	0	713	30	0	0	
6	0	0	0	0	0	0	768	33	0	0	
7	0	0	0	0	0	0	736	12	0	0	
8	0	0	0	0	0	0	788	35	0	0	
9	0	0	0	0	0	0	755	31	0	0	
10	0	0	0	0	0	0	807	35	0	0	
11	0	0	0	0	0	0	771	33	0	0	
12	0	0	0	0	0	0	817	36	0	0	
13	0	0	0	0	0	0	774	33	0	0	
14	0	0	0	0	0	0	811	35	0	0	
15	0	0	0	0	0	0	764	33	0	0	
0	0	0	0	0	0	0	801	35	0	0	
1	0	0	0	0	0	0	755	31	0	0	
2	0	0	0	0	0	0	787	35	0	0	
3	0	0	0	0	0	0	737	31	0	0	
4	0	0	0	0	0	0	771	33	0	0	
5	0	0	0	0	0	0	721	30	0	0	
6	0	0	0	0	0	0	760	32	0	0	
7	0	0	0	0	0	0	713	30	0	0	
8	0	0	0	0	0	0	752	31	0	0	
9	0	0	0	0	0	0	710	30	0	0	
10	0	0	0	0	0	0	743	31	0	0	
11	0	0	0	0	0	0	697	12	0	0	
12	0	0	0	0	0	0	734	31	0	0	
13	0	0	0	0	0	0	688	28	0	0	
14	0	0	0	0	0	0	723	30	0	0	
15	0	0	0	0	0	0	673	28	0	0	
0	0	0	0	0	0	0	707	29	0	0	
1	0	0	0	0	0	0	659	27	0	0	
2	0	0	0	0	0	0	696	28	0	0	
3	0	0	0	0	0	0	651	25	0	0	
4	0	0	0	0	0	0	686	28	0	0	
5	0	0	0	0	0	0	639	25	0	0	
6	0	0	0	0	0	0	676	28	0	0	
7	0	0	0	0	0	0	632	15	0	0	
8	0	0	0	0	0	0	670	27	0	0	
9	0	0	0	0	0	0	624	24	0	0	
10	0	0	0	0	0	0	662	27	0	0	
11	0	0	0	0	0	0	615	24	0	0	
12	0	0	0	0	0	0	650	25	0	0	
13	0	0	0	0	0	0	604	24	0	0	
14	0	0	0	0	0	0	639	25	0	0	
15	0	0	0	0	0	0	595	23	0	0	
0	0	0	0	0	0	0	630	24	0	0	
1	0	0	0	0	0	0	582	22	0	0	
2	0	0	0	0	0	0	615	24	0	0	
3	0	0	0	0	0	0	572	22	0	0	
4	0	0	0	0	0	0	607	24	0	0	
5	0	0	0	0	0	0	561	21	0	0	
6	0	0	0	0	0	0	601	24	0	0	
7	0	0	0	0	0	0	558	7	0	0	
8	0	0	0	0	0	0	593	23	0	0	
9	0	0	0	0	0	0	547	20	0	0	
10	0	0	0	0	0	0	580	22	0	0	
11	0	0	0	0	0	0	532	19	0	0	
12	0	0	0	0	0	0	564	21	0	0	
13	0	0	0	0	0	0	518	19	0	0	
14	0	0	0	0	0	0	551	20	0	0	
15	0	0	0	0	0	0	508	18	0	0	
0	0	0	0	0	0	0	537	19	0	0	
1	0	0	0	0	0	0	481	17	0	0	
2	0	0	0	0	0	0	513	19	0	0	
3	0	0	0	0	0	0	508	18	0	0	
4	0	0	0	0	0	0	608	24	0	0	
5	0	0	0	0	0	0	559	20	0	0	
6	0	0	0	0	0	0	531	19	0	0	
7	0	0	0	0	0	0	484	17	0	0	
8	0	0	0	0	0	0	517	19	0	0	
9	0	0	0	0	0	0	470	16	0	0	
10	0	0	0	0	0	0	511	19	0	0	
11	0	0	0	0	0	0	472	16	0	0	
12	0	0	0	0	0	0	513	19	0	0	
13	0	0	0	0	0	0	477	7	0	0	
14	0	0	0	0	0	0	518	19	0	0	
15	0	0	0	0	0	0	477	17	0	0	
0	0	0	0	0	0	0	519	19	0	0	
1	0	0	0	0	0	0	481	17	0	0	
2	0	0	0	0	0	0	524	7	0	0	
3	0	0	0	0	0	0	486	17	0	0	
4	0	0	0	0	0	0	529	19	0	0	
5	0	0	0	0	0	0	491	17	0	0	
6	0	0	0	0	0	0	531	19	0	0	
7	0	0	0	0	0	0	493	17	0	0	
8	0	0	0	0	0	0	532	19	0	0	
9	0	0	0	0	0	0	496	17	0	0	
10	0	0	0	0	0	0	540	19	0	0	
11	0	0	0	0	0	0	504	18	0	0	
12	0	0	0	0	0	0	547	20	0	0	
13	0	0	0	0	0	0	512	19	0	0	
14	0	0	0	0	0	0	555	20	0	0	
15	0	0	0	0	0	0	516	19	0	0	
0	0	0	0	0	0	0	560	21	0	0	
1	0	0	0	0	0	0	524	19	0	0	
2	0	0	0	0	0	0	568	22	0	0	
3	0	0	0	0	0	0	527	19	0	0	
4	0	0	0	0	0	0	569	22	0	0	
5	0	0	0	0	0	0	532	19	0	0	
6	0	0	0	0	0	0	575	22	0	0	
7	0	0	0	0	0	0	536	19	0	0	
8	0	0	0	0	0	0	580	22	0	0	
9	0	0	0	0	0	0	543	19	0	0	
10	0	0	0	0	0	0	588	23	0	0	
11	0	0	0	0	0	0	551	20	0	0	
12	0	0	0	0	0	0	593	23	0	0	
13	0	0	0	0	0	0	553	20	0	0	
14	0	0	0	0	0	0	595	23	0	0	
15	0	0	0	0	0	0	554	20	0	0	
0	0	0	0	0	0	0	591	23	0	0	
1	0	0	0	0	0	0	548	20	0	0	
2	0	0	0	0	0	0	589	23	0	0	
3	0	0	0	0	0	0	547	20	0	0	
4	0	0	0	0	0	0	585	23	0	0	
5	0	0	0	0	0	0	541	19	0	0	
6	0	0	0	0	0	0	579	22	0	0	
7	0	0	0	0	0	0	537	19	0	0	
8	0	0	0	0	0	0	575	22	0	0	
9	0	0	0	0	0	0	528	19	0	0	
10	0	0	0	0	0	0	568	22	0	0	
11	0	0	0	0	0	0	524	19	0	0	
12	0	0	0	0	0	0	560	21	0	0	
13	0	0	0	0	0	0	517	7	0	0	
14	0	0	0	0	0	0	553	20	0	0	
15	0	0	0	0	0	0	512	19	0	0	
0	0	0	0	0	0	0	555	20	0	0	
1	0	0	0	0	0	0	511	19	0	0	
2	0	0	0	0	0	0	550	20	0	0	
3	0	0	0	0	0	0	505	18	0	0	
4	0	0	0	0	0	0	543	7	0	0	
5	0	0	0	0	0	0	497	17	0	0	
6	0	0	0	0	0	0	536	19	0	0	
7	0	0	0	0	0	0	494	17	0	0	
8	0	0	0	0	0	0	535	19	0	0	
9	0	0	0	0	0	0	491	17	0	0	
10	0	0	0	0	0	0	526	19	0	0	
11	0	0	0	0	0	0	473	7	0	0	
12	0	0	0	0	0	0	525	19	0	0	
13	0	0	0	0	0	0	542	19	0	0	
14	0	0	0	0	0	0	624	24	0	0	
15	0	0	0	0	0	0	531	19	0	0	
0	0	0	0	0	0	0	531	7	0	0	
1	0	0	0	0	0	0	491	17	0	0	
2	0	0	0	0	0	0	516	19	0	0	
3	0	0	0	0	0	0	472	16	0	0	
4	0	0	0	0	0	0	512	19	0	0	
5	0	0	0	0	0	0	468	16	0	0	
6	0	0	0	0	0	0	510	19	0	0	
7	0	0	0	0	0	0	465	16	0	0	
8	0	0	0	0	0	0	507	18	0	0	
9	0	0	0	0	0	0	467	16	0	0	
10	0	0	0	0	0	0	508	18	0	0	
11	0	0	0	0	0	0	465	16	0	0	
12	0	0	0	0	0	0	508	19	0	0	
13	0	0	0	0	0	0	467	16	0	0	
14	0	0	0	0	0	0	508	18	0	0	
15	0	0	0	0	0	0	467	16	0	0	
0	0	0	0	0	0	0	507	18	0	0	
1	0	0	0	0	0	0	465	16	0	0	
2	0	0	0	0	0	0	510	7	0	0	
3	0	0	0	0	0	0	470	16	0	0	
4	0	0	0	0	0	0	512	19	0	0	
5	0	0	0	0	0	0	472	16	0	0	
6	0	0	0	0	0	0	515	19	0	0	
7	0	0	0	0	0	0	476	17	0	0	
8	0	0	0	0	0	0	518	19	0	0	
9	0	0	0	0	0	0	478	17	0	0	
10	0	0	0	0	0	0	519	19	0	0	
11	0	0	0	0	0	0	476	17	0	0	
12	0	0	0	0	0	0	518	19	0	0	
13	0	0	0	0	0	0	476	17	0	0	
14	0	0	0	0	0	0	515	19	0	0	
15	0	0	0	0	0	0	472	16	0	0	
0	0	0	0	0	0	0	513	19	0	0	
1	0	0	0	0	0	0	473	16	0	0	
2	0	0	0	0	0	0	515	19	0	0	
3	0	0	0	0	0	0	473	16	0	0	
4	0	0	0	0	0	0	515	19	0	0	
5	0	0	0	0	0	0	476	17	0	0	
6	0	0	0	0	0	0	518	19	0	0	
7	0	0	0	0	0	0	476	17	0	0	
8	0	0	0	0	0	0	517	7	0	0	
9	0	0	0	0	0	0	476	17	0	0	
10	0	0	0	0	0	0	519	19	0	0	
11	0	0	0	0	0	0	480	17	0	0	
12	0	0	0	0	0	0	519	19	0	0	
13	0	0	0	0	0	0	481	17	0	0	
14	0	0	0	0	0	0	521	19	0	0	
15	0	0	0	0	0	0	480	7	0	0	
0	0	0	0	0	0	0	520	19	0	0	
1	0	0	0	0	0	0	480	17	0	0	
2	0	0	0	0	0	0	520	19	0	0	
3	0	0	0	0	0	0	480	17	0	0	
4	0	0	0	0	0	0	519	7	0	0	
5	0	0	0	0	0	0	480	17	0	0	
6	0	0	0	0	0	0	519	19	0	0	
7	0	0	0	0	0	0	478	17	0	0	
8	0	0	0	0	0	0	519	19	0	0	
9	0	0	0	0	0	0	478	17	0	0	
10	0	0	0	0	0	0	519	19	0	0	
11	0	0	0	0	0	0	480	17	0	0	
12	0	0	0	0	0	0	521	19	0	0	
13	0	0	0	0	0	0	481	17	0	0	
14	0	0	0	0	0	0	526	19	0	0	
15	0	0	0	0	0	0	486	17	0	0	
0	0	0	0	0	0	0	527	19	0	0	
1	0	0	0	0	0	0	484	17	0	0	
2	0	0	0	0	0	0	524	19	0	0	
3	0	0	0	0	0	0	480	17	0	0	
4	0	0	0	0	0	0	519	19	0	0	
5	0	0	0	0	0	0	478	7	0	0	
6	0	0	0	0	0	0	519	19	0	0	
7	0	0	0	0	0	0	478	7	0	0	
8	0	0	0	0	0	0	516	19	0	0	
9	0	0	0	0	0	0	467	16	0	0	
10	0	0	0	0	0	0	510	19	0	0	
11	0	0	0	0	0	0	513	19	0	0	
12	0	0	0	0	0	0	620	24	0	0	
13	0	0	0	0	0	0	556	20	0	0	
14	0	0	0	0	0	0	527	19	0	0	
15	0	0	0	0	0	0	487	17	0	0	
0	0	0	0	0	0	0	518	19	0	0	
1	0	0	0	0	0	0	472	16	0	0	
2	0	0	0	0	0	0	512	19	0	0	
3	0	0	0	0	0	0	472	16	0	0	
4	0	0	0	0	0	0	512	19	0	0	
5	0	0	0	0	0	0	472	16	0	0	
6	0	0	0	0	0	0	512	19	0	0	
7	0	0	0	0	0	0	473	7	0	0	
8	0	0	0	0	0	0	515	7	0	0	
9	0	0	0	0	0	0	476	17	0	0	
10	0	0	0	0	0	0	516	19	0	0	
11	0	0	0	0	0	0	476	17	0	0	
12	0	0	0	0	0	0	515	19	0	0	
13	0	0	0	0	0	0	476	17	0	0	
14	0	0	0	0	0	0	518	19	0	0	
15	0	0	0	0	0	0	478	7	0	0	
0	0	0	0	0	0	0	519	19	0	0	
1	0	0	0	0	0	0	483	17	0	0	
2	0	0	0	0	0	0	526	19	0	0	
3	0	0	0	0	0	0	487	17	0	0	
4	0	0	0	0	0	0	530	7	0	0	
5	0	0	0	0	0	0	492	17	0	0	
6	0	0	0	0	0	0	534	19	0	0	
7	0	0	0	0	0	0	495	17	0	0	
8	0	0	0	0	0	0	536	19	0	0	
9	0	0	0	0	0	0	497	17	0	0	
10	0	0	0	0	0	0	536	19	0	0	
11	0	0	0	0	0	0	494	17	0	0	
12	0	0	0	0	0	0	531	19	0	0	
13	0	0	0	0	0	0	487	17	0	0	
14	0	0	0	0	0	0	527	19	0	0	
15	0	0	0	0	0	0	488	17	0	0	
0	0	0	0	0	0	0	529	19	0	0	
1	0	0	0	0	0	0	491	17	0	0	
2	0	0	0	0	0	0	529	19	0	0	
3	0	0	0	0	0	0	491	17	0	0	
4	0	0	0	0	0	0	532	19	0	0	
5	0	0	0	0	0	0	492	17	0	0	
6	0	0	0	0	0	0	532	19	0	0	
7	0	0	0	0	0	0	492	17	0	0	
8	0	0	0	0	0	0	534	19	0	0	
9	0	0	0	0	0	0	495	17	0	0	
10	0	0	0	0	0	0	536	19	0	0	
11	0	0	0	0	0	0	497	17	0	0	
12	0	0	0	0	0	0	540	19	0	0	
13	0	0	0	0	0	0	502	18	0	0	
14	0	0	0	0	0	0	543	19	0	0	
15	0	0	0	0	0	0	504	18	0	0	
0	0	0	0	0	0	0	543	19	0	0	
1	0	0	0	0	0	0	505	18	0	0	
2	0	0	0	0	0	0	548	20	0	0	
3	0	0	0	0	0	0	512	19	0	0	
4	0	0	0	0	0	0	555	20	0	0	
5	0	0	0	0	0	0	518	19	0	0	
6	0	0	0	0	0	0	560	7	0	0	
7	0	0	0	0	0	0	524	19	0	0	
8	0	0	0	0	0	0	566	22	0	0	
9	0	0	0	0	0	0	527	19	0	0	
10	0	0	0	0	0	0	572	22	0	0	
11	0	0	0	0	0	0	539	19	0	0	
12	0	0	0	0	0	0	583	22	0	0	
13	0	0	0	0	0	0	545	7	0	0	
14	0	0	0	0	0	0	590	23	0	0	
15	0	0	0	0	0	0	551	20	0	0	
0	0	0	0	0	0	0	591	23	0	0	
1	0	0	0	0	0	0	551	20	0	0	
2	0	0	0	0	0	0	585	23	0	0	
3	0	0	0	0	0	0	537	19	0	0	
4	0	0	0	0	0	0	572	22	0	0	
5	0	0	0	0	0	0	529	19	0	0	
6	0	0	0	0	0	0	564	21	0	0	
7	0	0	0	0	0	0	521	19	0	0	
8	0	0	0	0	0	0	553	7	0	0	
9	0	0	0	0	0	0	507	18	0	0	
10	0	0	0	0	0	0	539	19	0	0	
11	0	0	0	0	0	0	521	19	0	0	
12	0	0	0	0	0	0	609	24	0	0	
13	0	0	0	0	0	0	568	7	0	0	
14	0	0	0	0	0	0	543	7	0	0	
15	0	0	0	0	0	0	500	18	0	0	
0	0	0	0	0	0	0	540	19	0	0	
1	0	0	0	0	0	0	492	17	0	0	
2	0	0	0	0	0	0	532	19	0	0	
3	0	0	0	0	0	0	492	17	0	0	
4	0	0	0	0	0	0	531	19	0	0	
5	0	0	0	0	0	0	491	17	0	0	
6	0	0	0	0	0	0	531	19	0	0	
7	0	0	0	0	0	0	492	17	0	0	
8	0	0	0	0	0	0	531	7	0	0	
9	0	0	0	0	0	0	494	17	0	0	
10	0	0	0	0	0	0	534	19	0	0	
11	0	0	0	0	0	0	495	17	0	0	
12	0	0	0	0	0	0	534	19	0	0	
13	0	0	0	0	0	0	494	17	0	0	
14	0	0	0	0	0	0	534	19	0	0	
15	0	0	0	0	0	0	497	7	0	0	
0	0	0	0	0	0	0	536	19	0	0	
1	0	0	0	0	0	0	499	17	0	0	
2	0	0	0	0	0	0	537	19	0	0	
3	0	0	0	0	0	0	500	18	0	0	
4	0	0	0	0	0	0	540	19	0	0	
5	0	0	0	0	0	0	502	18	0	0	
6	0	0	0	0	0	0	542	19	0	0	
7	0	0	0	0	0	0	504	18	0	0	
8	0	0	0	0	0	0	543	20	0	0	
9	0	0	0	0	0	0	504	18	0	0	
10	0	0	0	0	0	0	542	19	0	0	
11	0	0	0	0	0	0	499	17	0	0	
12	0	0	0	0	0	0	536	19	0	0	
13	0	0	0	0	0	0	494	17	0	0	
14	0	0	0	0	0	0	529	19	0	0	
15	0	0	0	0	0	0	491	17	0	0	
0	0	0	0	0	0	0	527	19	0	0	
1	0	0	0	0	0	0	487	17	0	0	
2	0	0	0	0	0	0	527	19	0	0	
3	0	0	0	0	0	0	487	7	0	0	
4	0	0	0	0	0	0	527	19	0	0	
5	0	0	0	0	0	0	491	17	0	0	
6	0	0	0	0	0	0	529	19	0	0	
7	0	0	0	0	0	0	492	17	0	0	
8	0	0	0	0	0	0	532	19	0	0	
9	0	0	0	0	0	0	495	17	0	0	
10	0	0	0	0	0	0	535	19	0	0	
11	0	0	0	0	0	0	497	17	0	0	
12	0	0	0	0	0	0	537	19	0	0	
13	0	0	0	0	0	0	499	7	0	0	
14	0	0	0	0	0	0	539	19	0	0	
15	0	0	0	0	0	0	499	17	0	0	
0	0	0	0	0	0	0	537	19	0	0	
1	0	0	0	0	0	0	499	7	0	0	
2	0	0	0	0	0	0	536	7	0	0	
3	0	0	0	0	0	0	499	18	0	0	
4	0	0	0	0	0	0	539	19	0	0	
5	0	0	0	0	0	0	499	7	0	0	
6	0	0	0	0	0	0	540	19	0	0	
7	0	0	0	0	0	0	504	18	0	0	
8	0	0	0	0	0	0	543	19	0	0	
9	0	0	0	0	0	0	505	18	0	0	
10	0	0	0	0	0	0	547	20	0	0	
11	0	0	0	0	0	0	508	19	0	0	
12	0	0	0	0	0	0	547	20	0	0	
13	0	0	0	0	0	0	508	19	0	0	
14	0	0	0	0	0	0	545	20	0	0	
15	0	0	0	0	0	0	504	18	0	0	
0	0	0	0	0	0	0	539	19	0	0	
1	0	0	0	0	0	0	502	18	0	0	
2	0	0	0	0	0	0	541	19	0	0	
3	0	0	0	0	0	0	502	18	0	0	
4	0	0	0	0	0	0	537	19	0	0	
5	0	0	0	0	0	0	493	17	0	0	
6	0	0	0	0	0	0	534	19	0	0	
7	0	0	0	0	0	0	537	19	0	0	
8	0	0	0	0	0	0	639	25	0	0	
9	0	0	0	0	0	0	579	22	0	0	
10	0	0	0	0	0	0	553	20	0	0	
11	0	0	0	0	0	0	512	19	0	0	
12	0	0	0	0	0	0	539	19	0	0	
13	0	0	0	0	0	0	492	17	0	0	
14	0	0	0	0	0	0	532	19	0	0	
15	0	0	0	0	0	0	494	17	0	0	
0	0	0	0	0	0	0	532	19	0	0	
1	0	0	0	0	0	0	493	17	0	0	
2	0	0	0	0	0	0	531	19	0	0	
3	0	0	0	0	0	0	494	17	0	0	
4	0	0	0	0	0	0	532	19	0	0	
5	0	0	0	0	0	0	495	17	0	0	
6	0	0	0	0	0	0	533	19	0	0	
7	0	0	0	0	0	0	496	17	0	0	
8	0	0	0	0	0	0	532	19	0	0	
9	0	0	0	0	0	0	495	17	0	0	
10	0	0	0	0	0	0	534	19	0	0	
11	0	0	0	0	0	0	494	17	0	0	
12	0	0	0	0	0	0	536	19	0	0	
13	0	0	0	0	0	0	499	17	0	0	
14	0	0	0	0	0	0	536	19	0	0	
15	0	0	0	0	0	0	499	17	0	0	
0	0	0	0	0	0	0	537	19	0	0	
1	0	0	0	0	0	0	500	18	0	0	
2	0	0	0	0	0	0	540	19	0	0	
3	0	0	0	0	0	0	504	18	0	0	
4	0	0	0	0	0	0	542	19	0	0	
5	0	0	0	0	0	0	504	18	0	0	
6	0	0	0	0	0	0	540	7	0	0	
7	0	0	0	0	0	0	497	17	0	0	
8	0	0	0	0	0	0	531	19	0	0	
9	0	0	0	0	0	0	491	17	0	0	
10	0	0	0	0	0	0	527	19	0	0	
11	0	0	0	0	0	0	491	17	0	0	
12	0	0	0	0	0	0	527	19	0	0	
13	0	0	0	0	0	0	492	17	0	0	
14	0	0	0	0	0	0	531	7	0	0	
15	0	0	0	0	0	0	494	17	0	0	
0	0	0	0	0	0	0	531	19	0	0	
1	0	0	0	0	0	0	494	17	0	0	
2	0	0	0	0	0	0	531	19	0	0	
3	0	0	0	0	0	0	496	17	0	0	
4	0	0	0	0	0	0	534	19	0	0	
5	0	0	0	0	0	0	496	17	0	0	
6	0	0	0	0	0	0	532	19	0	0	
7	0	0	0	0	0	0	495	17	0	0	
8	0	0	0	0	0	0	534	19	0	0	
9	0	0	0	0	0	0	496	17	0	0	
10	0	0	0	0	0	0	536	19	0	0	
11	0	0	0	0	0	0	497	17	0	0	
12	0	0	0	0	0	0	536	19	0	0	
13	0	0	0	0	0	0	497	17	0	0	
14	0	0	0	0	0	0	536	19	0	0	
15	0	0	0	0	0	0	499	18	0	0	
0	0	0	0	0	0	0	539	19	0	0	
1	0	0	0	0	0	0	503	18	0	0	
2	0	0	0	0	0	0	540	19	0	0	
3	0	0	0	0	0	0	503	18	0	0	
4	0	0	0	0	0	0	540	19	0	0	
5	0	0	0	0	0	0	504	18	0	0	
6	0	0	0	0	0	0	540	19	0	0	
7	0	0	0	0	0	0	505	7	0	0	
8	0	0	0	0	0	0	547	20	0	0	
9	0	0	0	0	0	0	508	18	0	0	
10	0	0	0	0	0	0	547	20	0	0	
11	0	0	0	0	0	0	507	18	0	0	
12	0	0	0	0	0	0	543	19	0	0	
13	0	0	0	0	0	0	502	18	0	0	
14	0	0	0	0	0	0	539	19	0	0	
15	0	0	0	0	0	0	502	18	0	0	
0	0	0	0	0	0	0	542	7	0	0	
1	0	0	0	0	0	0	504	7	0	0	
2	0	0	0	0	0	0	539	19	0	0	
3	0	0	0	0	0	0	495	17	0	0	
4	0	0	0	0	0	0	551	20	0	0	
5	0	0	0	0	0	0	578	22	0	0	
6	0	0	0	0	0	0	651	25	0	0	
7	0	0	0	0	0	0	547	20	0	0	
8	0	0	0	0	0	0	556	20	0	0	
9	0	0	0	0	0	0	513	19	0	0	
10	0	0	0	0	0	0	540	19	0	0	
11	0	0	0	0	0	0	502	18	0	0	
12	0	0	0	0	0	0	537	19	0	0	
13	0	0	0	0	0	0	497	17	0	0	
14	0	0	0	0	0	0	536	19	0	0	
15	0	0	0	0	0	0	499	17	0	0	
0	0	0	0	0	0	0	536	19	0	0	
1	0	0	0	0	0	0	497	7	0	0	
2	0	0	0	0	0	0	537	19	0	0	
3	0	0	0	0	0	0	501	18	0	0	
4	0	0	0	0	0	0	540	19	0	0	
5	0	0	0	0	0	0	504	18	0	0	
6	0	0	0	0	0	0	543	19	0	0	
7	0	0	0	0	0	0	508	18	0	0	
8	0	0	0	0	0	0	543	20	0	0	
9	0	0	0	0	0	0	510	19	0	0	
10	0	0	0	0	0	0	550	20	0	0	
11	0	0	0	0	0	0	513	19	0	0	
12	0	0	0	0	0	0	551	20	0	0	
13	0	0	0	0	0	0	515	19	0	0	
14	0	0	0	0	0	0	555	20	0	0	
15	0	0	0	0	0	0	518	19	0	0	
0	0	0	0	0	0	0	556	20	0	0	
1	0	0	0	0	0	0	519	19	0	0	
2	0	0	0	0	0	0	559	20	0	0	
3	0	0	0	0	0	0	519	19	0	0	
4	0	0	0	0	0	0	556	20	0	0	
5	0	0	0	0	0	0	516	19	0	0	
6	0	0	0	0	0	0	551	20	0	0	
7	0	0	0	0	0	0	511	19	0	0	
8	0	0	0	0	0	0	550	20	0	0	
9	0	0	0	0	0	0	510	19	0	0	
10	0	0	0	0	0	0	547	20	0	0	
11	0	0	0	0	0	0	510	19	0	0	
12	0	0	0	0	0	0	546	20	0	0	
13	0	0	0	0	0	0	509	19	0	0	
14	0	0	0	0	0	0	547	20	0	0	
15	0	0	0	0	0	0	511	19	0	0	
0	0	0	0	0	0	0	547	20	0	0	
1	0	0	0	0	0	0	510	19	0	0	
2	0	0	0	0	0	0	545	20	0	0	
3	0	0	0	0	0	0	510	19	0	0	
4	0	0	0	0	0	0	547	20	0	0	
5	0	0	0	0	0	0	510	19	0	0	
6	0	0	0	0	0	0	547	20	0	0	
7	0	0	0	0	0	0	511	19	0	0	
8	0	0	0	0	0	0	547	20	0	0	
9	0	0	0	0	0	0	509	19	0	0	
10	0	0	0	0	0	0	548	20	0	0	
11	0	0	0	0	0	0	511	7	0	0	
12	0	0	0	0	0	0	548	20	0	0	
13	0	0	0	0	0	0	511	19	0	0	
14	0	0	0	0	0	0	550	20	0	0	
15	0	0	0	0	0	0	511	19	0	0	
0	0	0	0	0	0	0	550	20	0	0	
1	0	0	0	0	0	0	512	19	0	0	
2	0	0	0	0	0	0	551	20	0	0	
3	0	0	0	0	0	0	513	19	0	0	
4	0	0	0	0	0	0	551	20	0	0	
5	0	0	0	0	0	0	513	7	0	0	
6	0	0	0	0	0	0	553	20	0	0	
7	0	0	0	0	0	0	518	19	0	0	
8	0	0	0	0	0	0	557	20	0	0	
9	0	0	0	0	0	0	524	19	0	0	
10	0	0	0	0	0	0	561	7	0	0	
11	0	0	0	0	0	0	524	19	0	0	
12	0	0	0	0	0	0	558	7	0	0	
13	0	0	0	0	0	0	519	19	0	0	
14	0	0	0	0	0	0	551	20	0	0	
15	0	0	0	0	0	0	512	7	0	0	
0	0	0	0	0	0	0	550	7	0	0	
1	0	0	0	0	0	0	511	19	0	0	
2	0	0	0	0	0	0	548	20	0	0	
3	0	0	0	0	0	0	511	19	0	0	
4	0	0	0	0	0	0	541	19	0	0	
5	0	0	0	0	0	0	504	18	0	0	
6	0	0	0	0	0	0	579	22	0	0	
7	0	0	0	0	0	0	602	24	0	0	
8	0	0	0	0	0	0	624	9	0	0	
9	0	0	0	0	0	0	518	19	0	0	
10	0	0	0	0	0	0	559	20	0	0	
11	0	0	0	0	0	0	512	7	0	0	
12	0	0	0	0	0	0	542	19	0	0	
13	0	0	0	0	0	0	504	18	0	0	
14	0	0	0	0	0	0	542	19	0	0	
15	0	0	0	0	0	0	505	18	0	0	
0	0	0	0	0	0	0	540	19	0	0	
1	0	0	0	0	0	0	507	18	0	0	
2	0	0	0	0	0	0	543	19	0	0	
3	0	0	0	0	0	0	508	7	0	0	
4	0	0	0	0	0	0	543	19	0	0	
5	0	0	0	0	0	0	508	19	0	0	
6	0	0	0	0	0	0	543	19	0	0	
7	0	0	0	0	0	0	509	19	0	0	
8	0	0	0	0	0	0	543	19	0	0	
9	0	0	0	0	0	0	508	18	0	0	
10	0	0	0	0	0	0	545	20	0	0	
11	0	0	0	0	0	0	508	19	0	0	
12	0	0	0	0	0	0	548	20	0	0	
13	0	0	0	0	0	0	513	19	0	0	
14	0	0	0	0	0	0	550	20	0	0	
15	0	0	0	0	0	0	515	19	0	0	
0	0	0	0	0	0	0	552	20	0	0	
1	0	0	0	0	0	0	519	19	0	0	
2	0	0	0	0	0	0	556	20	0	0	
3	0	0	0	0	0	0	521	19	0	0	
4	0	0	0	0	0	0	558	20	0	0	
5	0	0	0	0	0	0	519	19	0	0	
6	0	0	0	0	0	0	553	20	0	0	
7	0	0	0	0	0	0	513	19	0	0	
8	0	0	0	0	0	0	547	20	0	0	
9	0	0	0	0	0	0	511	19	0	0	
10	0	0	0	0	0	0	545	20	0	0	
11	0	0	0	0	0	0	508	18	0	0	
12	0	0	0	0	0	0	542	19	0	0	
13	0	0	0	0	0	0	505	18	0	0	
14	0	0	0	0	0	0	540	19	0	0	
15	0	0	0	0	0	0	504	18	0	0	
0	0	0	0	0	0	0	540	19	0	0	
1	0	0	0	0	0	0	504	18	0	0	
2	0	0	0	0	0	0	540	19	0	0	
3	0	0	0	0	0	0	504	18	0	0	
4	0	0	0	0	0	0	539	19	0	0	
5	0	0	0	0	0	0	504	18	0	0	
6	0	0	0	0	0	0	542	7	0	0	
7	0	0	0	0	0	0	504	18	0	0	
8	0	0	0	0	0	0	540	19	0	0	
9	0	0	0	0	0	0	504	18	0	0	
10	0	0	0	0	0	0	540	19	0	0	
11	0	0	0	0	0	0	504	18	0	0	
12	0	0	0	0	0	0	540	19	0	0	
13	0	0	0	0	0	0	504	18	0	0	
14	0	0	0	0	0	0	537	19	0	0	
15	0	0	0	0	0	0	500	18	0	0	
0	0	0	0	0	0	0	536	19	0	0	
1	0	0	0	0	0	0	499	17	0	0	
2	0	0	0	0	0	0	534	19	0	0	
3	0	0	0	0	0	0	499	18	0	0	
4	0	0	0	0	0	0	536	19	0	0	
5	0	0	0	0	0	0	502	18	0	0	
6	0	0	0	0	0	0	536	19	0	0	
7	0	0	0	0	0	0	504	18	0	0	
8	0	0	0	0	0	0	536	19	0	0	
9	0	0	0	0	0	0	502	18	0	0	
10	0	0	0	0	0	0	537	19	0	0	
11	0	0	0	0	0	0	504	18	0	0	
12	0	0	0	0	0	0	539	19	0	0	
13	0	0	0	0	0	0	509	19	0	0	
14	0	0	0	0	0	0	543	19	0	0	
15	0	0	0	0	0	0	510	19	0	0	
0	0	0	0	0	0	0	543	19	0	0	
1	0	0	0	0	0	0	505	18	0	0	
2	0	0	0	0	0	0	537	19	0	0	
3	0	0	0	0	0	0	500	18	0	0	
4	0	0	0	0	0	0	536	19	0	0	
5	0	0	0	0	0	0	500	7	0	0	
6	0	0	0	0	0	0	532	19	0	0	
7	0	0	0	0	0	0	492	17	0	0	
8	0	0	0	0	0	0	519	19	0	0	
9	0	0	0	0	0	0	499	18	0	0	
10	0	0	0	0	0	0	598	23	0	0	
11	0	0	0	0	0	0	606	24	0	0	
12	0	0	0	0	0	0	583	22	0	0	
13	0	0	0	0	0	0	507	18	0	0	
14	0	0	0	0	0	0	543	7	0	0	
15	0	0	0	0	0	0	494	17	0	0	
0	0	0	0	0	0	0	527	19	0	0	
1	0	0	0	0	0	0	492	17	0	0	
2	0	0	0	0	0	0	526	19	0	0	
3	0	0	0	0	0	0	489	17	0	0	
4	0	0	0	0	0	0	525	19	0	0	
5	0	0	0	0	0	0	491	17	0	0	
6	0	0	0	0	0	0	526	19	0	0	
7	0	0	0	0	0	0	492	17	0	0	
8	0	0	0	0	0	0	526	19	0	0	
9	0	0	0	0	0	0	492	17	0	0	
10	0	0	0	0	0	0	525	19	0	0	
11	0	0	0	0	0	0	488	17	0	0	
12	0	0	0	0	0	0	526	19	0	0	
13	0	0	0	0	0	0	492	17	0	0	
14	0	0	0	0	0	0	524	19	0	0	
15	0	0	0	0	0	0	492	10	0	0	
0	0	0	0	0	0	0	527	19	0	0	
1	0	0	0	0	0	0	492	17	0	0	
2	0	0	0	0	0	0	527	19	0	0	
3	0	0	0	0	0	0	496	7	0	0	
4	0	0	0	0	0	0	531	19	0	0	
5	0	0	0	0	0	0	497	17	0	0	
6	0	0	0	0	0	0	532	19	0	0	
7	0	0	0	0	0	0	499	18	0	0	
8	0	0	0	0	0	0	534	19	0	0	
9	0	0	0	0	0	0	496	17	0	0	
10	0	0	0	0	0	0	527	19	0	0	
11	0	0	0	0	0	0	490	17	0	0	
12	0	0	0	0	0	0	522	19	0	0	
13	0	0	0	0	0	0	487	17	0	0	
14	0	0	0	0	0	0	520	19	0	0	
15	0	0	0	0	0	0	489	17	0	0	
0	0	0	0	0	0	0	524	7	0	0	
1	0	0	0	0	0	0	492	7	0	0	
2	0	0	0	0	0	0	524	19	0	0	
3	0	0	0	0	0	0	491	17	0	0	
4	0	0	0	0	0	0	524	19	0	0	
5	0	0	0	0	0	0	492	17	0	0	
6	0	0	0	0	0	0	527	19	0	0	
7	0	0	0	0	0	0	497	17	0	0	
8	0	0	0	0	0	0	531	19	0	0	
9	0	0	0	0	0	0	497	17	0	0	
10	0	0	0	0	0	0	531	19	0	0	
11	0	0	0	0	0	0	497	17	0	0	
12	0	0	0	0	0	0	531	19	0	0	
13	0	0	0	0	0	0	499	17	0	0	
14	0	0	0	0	0	0	534	19	0	0	
15	0	0	0	0	0	0	499	18	0	0	
0	0	0	0	0	0	0	534	19	0	0	
1	0	0	0	0	0	0	499	18	0	0	
2	0	0	0	0	0	0	532	19	0	0	
3	0	0	0	0	0	0	497	17	0	0	
4	0	0	0	0	0	0	530	19	0	0	
5	0	0	0	0	0	0	496	17	0	0	
6	0	0	0	0	0	0	529	19	0	0	
7	0	0	0	0	0	0	499	18	0	0	
8	0	0	0	0	0	0	535	19	0	0	
9	0	0	0	0	0	0	504	18	0	0	
10	0	0	0	0	0	0	536	19	0	0	
11	0	0	0	0	0	0	504	18	0	0	
12	0	0	0	0	0	0	542	19	0	0	
13	0	0	0	0	0	0	510	19	0	0	
14	0	0	0	0	0	0	543	19	0	0	
15	0	0	0	0	0	0	510	19	0	0	
0	0	0	0	0	0	0	542	19	0	0	
1	0	0	0	0	0	0	505	18	0	0	
2	0	0	0	0	0	0	536	19	0	0	
3	0	0	0	0	0	0	504	18	0	0	
4	0	0	0	0	0	0	537	19	0	0	
5	0	0	0	0	0	0	504	18	0	0	
6	0	0	0	0	0	0	536	19	0	0	
7	0	0	0	0	0	0	497	17	0	0	
8	0	0	0	0	0	0	529	19	0	0	
9	0	0	0	0	0	0	534	19	0	0	
10	0	0	0	0	0	0	625	24	0	0	
11	0	0	0	0	0	0	575	22	0	0	
12	0	0	0	0	0	0	545	20	0	0	
13	0	0	0	0	0	0	519	19	0	0	
14	0	0	0	0	0	0	545	20	0	0	
15	0	0	0	0	0	0	507	18	0	0	
0	0	0	0	0	0	0	539	19	0	0	
1	0	0	0	0	0	0	505	18	0	0	
2	0	0	0	0	0	0	537	19	0	0	
3	0	0	0	0	0	0	504	18	0	0	
4	0	0	0	0	0	0	536	19	0	0	
5	0	0	0	0	0	0	504	18	0	0	
6	0	0	0	0	0	0	537	19	0	0	
7	0	0	0	0	0	0	504	18	0	0	
8	0	0	0	0	0	0	539	19	0	0	
9	0	0	0	0	0	0	507	18	0	0	
10	0	0	0	0	0	0	540	19	0	0	
11	0	0	0	0	0	0	507	18	0	0	
12	0	0	0	0	0	0	539	19	0	0	
13	0	0	0	0	0	0	508	19	0	0	
14	0	0	0	0	0	0	542	19	0	0	
15	0	0	0	0	0	0	510	19	0	0	
0	0	0	0	0	0	0	543	20	0	0	
1	0	0	0	0	0	0	515	19	0	0	
2	0	0	0	0	0	0	549	7	0	0	
3	0	0	0	0	0	0	518	19	0	0	
4	0	0	0	0	0	0	551	20	0	0	
5	0	0	0	0	0	0	519	19	0	0	
6	0	0	0	0	0	0	551	20	0	0	
7	0	0	0	0	0	0	519	19	0	0	
8	0	0	0	0	0	0	550	20	0	0	
9	0	0	0	0	0	0	517	19	0	0	
10	0	0	0	0	0	0	545	7	0	0	
11	0	0	0	0	0	0	512	19	0	0	
12	0	0	0	0	0	0	543	19	0	0	
13	0	0	0	0	0	0	511	19	0	0	
14	0	0	0	0	0	0	543	19	0	0	
15	0	0	0	0	0	0	511	19	0	0	
0	0	0	0	0	0	0	543	20	0	0	
1	0	0	0	0	0	0	512	19	0	0	
2	0	0	0	0	0	0	543	19	0	0	
3	0	0	0	0	0	0	511	7	0	0	
4	0	0	0	0	0	0	543	19	0	0	
5	0	0	0	0	0	0	512	19	0	0	
6	0	0	0	0	0	0	543	19	0	0	
7	0	0	0	0	0	0	512	19	0	0	
8	0	0	0	0	0	0	543	19	0	0	
9	0	0	0	0	0	0	512	19	0	0	
10	0	0	0	0	0	0	543	19	0	0	
11	0	0	0	0	0	0	512	19	0	0	
12	0	0	0	0	0	0	543	19	0	0	
13	0	0	0	0	0	0	511	19	0	0	
14	0	0	0	0	0	0	543	7	0	0	
15	0	0	0	0	0	0	511	7	0	0	
0	0	0	0	0	0	0	542	7	0	0	
1	0	0	0	0	0	0	511	7	0	0	
2	0	0	0	0	0	0	543	19	0	0	
3	0	0	0	0	0	0	511	19	0	0	
4	0	0	0	0	0	0	542	7	0	0	
5	0	0	0	0	0	0	510	7	0	0	
6	0	0	0	0	0	0	540	19	0	0	
7	0	0	0	0	0	0	510	19	0	0	
8	0	0	0	0	0	0	540	19	0	0	
9	0	0	0	0	0	0	511	19	0	0	
10	0	0	0	0	0	0	547	7	0	0	
11	0	0	0	0	0	0	516	19	0	0	
12	0	0	0	0	0	0	548	20	0	0	
13	0	0	0	0	0	0	515	19	0	0	
14	0	0	0	0	0	0	545	20	0	0	
15	0	0	0	0	0	0	510	19	0	0	
0	0	0	0	0	0	0	540	19	0	0	
1	0	0	0	0	0	0	509	19	0	0	
2	0	0	0	0	0	0	539	7	0	0	
3	0	0	0	0	0	0	508	18	0	0	
4	0	0	0	0	0	0	535	19	0	0	
5	0	0	0	0	0	0	496	17	0	0	
6	0	0	0	0	0	0	535	19	0	0	
7	0	0	0	0	0	0	558	20	0	0	
8	0	0	0	0	0	0	639	25	0	0	
9	0	0	0	0	0	0	564	21	0	0	
10	0	0	0	0	0	0	547	20	0	0	
11	0	0	0	0	0	0	519	7	0	0	
12	0	0	0	0	0	0	536	19	0	0	
13	0	0	0	0	0	0	500	18	0	0	
14	0	0	0	0	0	0	532	19	0	0	
15	0	0	0	0	0	0	504	18	0	0	
0	0	0	0	0	0	0	532	7	0	0	
1	0	0	0	0	0	0	502	18	0	0	
2	0	0	0	0	0	0	532	19	0	0	
3	0	0	0	0	0	0	503	18	0	0	
4	0	0	0	0	0	0	534	7	0	0	
5	0	0	0	0	0	0	504	18	0	0	
6	0	0	0	0	0	0	534	19	0	0	
7	0	0	0	0	0	0	502	18	0	0	
8	0	0	0	0	0	0	532	19	0	0	
9	0	0	0	0	0	0	504	18	0	0	
10	0	0	0	0	0	0	534	19	0	0	
11	0	0	0	0	0	0	504	18	0	0	
12	0	0	0	0	0	0	536	19	0	0	
13	0	0	0	0	0	0	507	7	0	0	
14	0	0	0	0	0	0	539	7	0	0	
15	0	0	0	0	0	0	508	19	0	0	
0	0	0	0	0	0	0	540	19	0	0	
1	0	0	0	0	0	0	512	7	0	0	
2	0	0	0	0	0	0	543	19	0	0	
3	0	0	0	0	0	0	515	19	0	0	
4	0	0	0	0	0	0	544	20	0	0	
5	0	0	0	0	0	0	515	7	0	0	
6	0	0	0	0	0	0	543	19	0	0	
7	0	0	0	0	0	0	511	19	0	0	
8	0	0	0	0	0	0	540	19	0	0	
9	0	0	0	0	0	0	508	19	0	0	
10	0	0	0	0	0	0	537	19	0	0	
11	0	0	0	0	0	0	505	18	0	0	
12	0	0	0	0	0	0	536	19	0	0	
13	0	0	0	0	0	0	508	19	0	0	
14	0	0	0	0	0	0	540	19	0	0	
15	0	0	0	0	0	0	509	19	0	0	
0	0	0	0	0	0	0	540	19	0	0	
1	0	0	0	0	0	0	511	19	0	0	
2	0	0	0	0	0	0	543	19	0	0	
3	0	0	0	0	0	0	512	19	0	0	
4	0	0	0	0	0	0	543	19	0	0	
5	0	0	0	0	0	0	515	19	0	0	
6	0	0	0	0	0	0	543	19	0	0	
7	0	0	0	0	0	0	512	19	0	0	
8	0	0	0	0	0	0	543	7	0	0	
9	0	0	0	0	0	0	512	19	0	0	
10	0	0	0	0	0	0	540	19	0	0	
11	0	0	0	0	0	0	511	19	0	0	
12	0	0	0	0	0	0	541	19	0	0	
13	0	0	0	0	0	0	511	19	0	0	
14	0	0	0	0	0	0	540	19	0	0	
15	0	0	0	0	0	0	512	19	0	0	
0	0	0	0	0	0	0	542	19	0	0	
1	0	0	0	0	0	0	512	19	0	0	
2	0	0	0	0	0	0	540	19	0	0	
3	0	0	0	0	0	0	511	19	0	0	
4	0	0	0	0	0	0	540	19	0	0	
5	0	0	0	0	0	0	511	19	0	0	
6	0	0	0	0	0	0	542	19	0	0	
7	0	0	0	0	0	0	512	11	0	0	
8	0	0	0	0	0	0	543	19	0	0	
9	0	0	0	0	0	0	518	19	0	0	
10	0	0	0	0	0	0	547	20	0	0	
11	0	0	0	0	0	0	519	19	0	0	
12	0	0	0	0	0	0	545	20	0	0	
13	0	0	0	0	0	0	513	19	0	0	
14	0	0	0	0	0	0	539	19	0	0	
15	0	0	0	0	0	0	508	19	0	0	
0	0	0	0	0	0	0	539	19	0	0	
1	0	0	0	0	0	0	510	19	0	0	
2	0	0	0	0	0	0	536	19	0	0	
3	0	0	0	0	0	0	503	18	0	0	
4	0	0	0	0	0	0	524	19	0	0	
5	0	0	0	0	0	0	519	7	0	0	
6	0	0	0	0	0	0	617	24	0	0	
7	0	0	0	0	0	0	606	24	0	0	
8	0	0	0	0	0	0	568	7	0	0	
9	0	0	0	0	0	0	521	19	0	0	
10	0	0	0	0	0	0	543	20	0	0	
11	0	0	0	0	0	0	504	18	0	0	
12	0	0	0	0	0	0	534	19	0	0	
13	0	0	0	0	0	0	504	18	0	0	
14	0	0	0	0	0	0	534	19	0	0	
15	0	0	0	0	0	0	507	18	0	0	
0	0	0	0	0	0	0	533	19	0	0	
1	0	0	0	0	0	0	504	18	0	0	
2	0	0	0	0	0	0	531	19	0	0	
3	0	0	0	0	0	0	504	18	0	0	
4	0	0	0	0	0	0	532	19	0	0	
5	0	0	0	0	0	0	505	18	0	0	
6	0	0	0	0	0	0	534	19	0	0	
7	0	0	0	0	0	0	507	18	0	0	
8	0	0	0	0	0	0	536	19	0	0	
9	0	0	0	0	0	0	508	19	0	0	
10	0	0	0	0	0	0	539	19	0	0	
11	0	0	0	0	0	0	511	19	0	0	
12	0	0	0	0	0	0	539	19	0	0	
13	0	0	0	0	0	0	512	19	0	0	
14	0	0	0	0	0	0	541	19	0	0	
15	0	0	0	0	0	0	515	19	0	0	
0	0	0	0	0	0	0	543	20	0	0	
1	0	0	0	0	0	0	518	19	0	0	
2	0	0	0	0	0	0	547	20	0	0	
3	0	0	0	0	0	0	517	19	0	0	
4	0	0	0	0	0	0	543	19	0	0	
5	0	0	0	0	0	0	515	19	0	0	
6	0	0	0	0	0	0	541	19	0	0	
7	0	0	0	0	0	0	512	19	0	0	
8	0	0	0	0	0	0	540	19	0	0	
9	0	0	0	0	0	0	511	19	0	0	
10	0	0	0	0	0	0	537	19	0	0	
11	0	0	0	0	0	0	511	19	0	0	
12	0	0	0	0	0	0	537	19	0	0	
13	0	0	0	0	0	0	508	19	0	0	
14	0	0	0	0	0	0	536	19	0	0	
15	0	0	0	0	0	0	508	19	0	0	
0	0	0	0	0	0	0	536	19	0	0	
1	0	0	0	0	0	0	508	19	0	0	
2	0	0	0	0	0	0	536	19	0	0	
3	0	0	0	0	0	0	508	19	0	0	
4	0	0	0	0	0	0	536	19	0	0	
5	0	0	0	0	0	0	508	19	0	0	
6	0	0	0	0	0	0	534	19	0	0	
7	0	0	0	0	0	0	506	18	0	0	
8	0	0	0	0	0	0	534	19	0	0	
9	0	0	0	0	0	0	507	18	0	0	
10	0	0	0	0	0	0	531	19	0	0	
11	0	0	0	0	0	0	504	18	0	0	
12	0	0	0	0	0	0	530	19	0	0	
13	0	0	0	0	0	0	504	18	0	0	
14	0	0	0	0	0	0	531	19	0	0	
15	0	0	0	0	0	0	505	18	0	0	
0	0	0	0	0	0	0	532	19	0	0	
1	0	0	0	0	0	0	504	18	0	0	
2	0	0	0	0	0	0	534	19	0	0	
3	0	0	0	0	0	0	507	18	0	0	
4	0	0	0	0	0	0	535	7	0	0	
5	0	0	0	0	0	0	510	7	0	0	
6	0	0	0	0	0	0	540	19	0	0	
7	0	0	0	0	0	0	513	19	0	0	
8	0	0	0	0	0	0	545	20	0	0	
9	0	0	0	0	0	0	521	19	0	0	
10	0	0	0	0	0	0	547	20	0	0	
11	0	0	0	0	0	0	521	19	0	0	
12	0	0	0	0	0	0	545	20	0	0	
13	0	0	0	0	0	0	515	19	0	0	
14	0	0	0	0	0	0	540	19	0	0	
15	0	0	0	0	0	0	515	19	0	0	
0	0	0	0	0	0	0	542	19	0	0	
1	0	0	0	0	0	0	514	19	0	0	
2	0	0	0	0	0	0	536	19	0	0	
3	0	0	0	0	0	0	504	18	0	0	
4	0	0	0	0	0	0	527	19	0	0	
5	0	0	0	0	0	0	540	19	0	0	
6	0	0	0	0	0	0	639	25	0	0	
7	0	0	0	0	0	0	602	24	0	0	
8	0	0	0	0	0	0	556	20	0	0	
9	0	0	0	0	0	0	527	19	0	0	
10	0	0	0	0	0	0	543	19	0	0	
11	0	0	0	0	0	0	508	7	0	0	
12	0	0	0	0	0	0	535	19	0	0	
13	0	0	0	0	0	0	508	18	0	0	
14	0	0	0	0	0	0	534	19	0	0	
15	0	0	0	0	0	0	508	18	0	0	
0	0	0	0	0	0	0	534	19	0	0	
1	0	0	0	0	0	0	508	18	0	0	
2	0	0	0	0	0	0	534	19	0	0	
3	0	0	0	0	0	0	508	18	0	0	
4	0	0	0	0	0	0	534	19	0	0	
5	0	0	0	0	0	0	508	18	0	0	
6	0	0	0	0	0	0	535	19	0	0	
7	0	0	0	0	0	0	511	19	0	0	
8	0	0	0	0	0	0	536	19	0	0	
9	0	0	0	0	0	0	513	19	0	0	
10	0	0	0	0	0	0	540	19	0	0	
11	0	0	0	0	0	0	517	19	0	0	
12	0	0	0	0	0	0	543	19	0	0	
13	0	0	0	0	0	0	520	19	0	0	
14	0	0	0	0	0	0	550	20	0	0	
15	0	0	0	0	0	0	526	7	0	0	
0	0	0	0	0	0	0	551	20	0	0	
1	0	0	0	0	0	0	527	19	0	0	
2	0	0	0	0	0	0	553	20	0	0	
3	0	0	0	0	0	0	528	19	0	0	
4	0	0	0	0	0	0	553	20	0	0	
5	0	0	0	0	0	0	524	19	0	0	
6	0	0	0	0	0	0	547	20	0	0	
7	0	0	0	0	0	0	519	19	0	0	
8	0	0	0	0	0	0	543	19	0	0	
9	0	0	0	0	0	0	516	19	0	0	
10	0	0	0	0	0	0	540	19	0	0	
11	0	0	0	0	0	0	513	19	0	0	
12	0	0	0	0	0	0	539	19	0	0	
13	0	0	0	0	0	0	513	19	0	0	
14	0	0	0	0	0	0	537	19	0	0	
15	0	0	0	0	0	0	513	19	0	0	
0	0	0	0	0	0	0	540	19	0	0	
1	0	0	0	0	0	0	515	19	0	0	
2	0	0	0	0	0	0	537	19	0	0	
3	0	0	0	0	0	0	514	19	0	0	
4	0	0	0	0	0	0	537	19	0	0	
5	0	0	0	0	0	0	513	19	0	0	
6	0	0	0	0	0	0	537	19	0	0	
7	0	0	0	0	0	0	512	19	0	0	
8	0	0	0	0	0	0	536	19	0	0	
9	0	0	0	0	0	0	511	19	0	0	
10	0	0	0	0	0	0	536	19	0	0	
11	0	0	0	0	0	0	512	19	0	0	
12	0	0	0	0	0	0	536	19	0	0	
13	0	0	0	0	0	0	510	19	0	0	
14	0	0	0	0	0	0	534	19	0	0	
15	0	0	0	0	0	0	508	19	0	0	
0	0	0	0	0	0	0	532	19	0	0	
1	0	0	0	0	0	0	508	19	0	0	
2	0	0	0	0	0	0	534	7	0	0	
3	0	0	0	0	0	0	508	7	0	0	
4	0	0	0	0	0	0	534	19	0	0	
5	0	0	0	0	0	0	512	19	0	0	
6	0	0	0	0	0	0	539	19	0	0	
7	0	0	0	0	0	0	515	19	0	0	
8	0	0	0	0	0	0	543	19	0	0	
9	0	0	0	0	0	0	521	19	0	0	
10	0	0	0	0	0	0	545	20	0	0	
11	0	0	0	0	0	0	523	19	0	0	
12	0	0	0	0	0	0	545	20	0	0	
13	0	0	0	0	0	0	519	19	0	0	
14	0	0	0	0	0	0	542	7	0	0	
15	0	0	0	0	0	0	518	19	0	0	
0	0	0	0	0	0	0	542	19	0	0	
1	0	0	0	0	0	0	518	19	0	0	
2	0	0	0	0	0	0	539	19	0	0	
3	0	0	0	0	0	0	510	19	0	0	
4	0	0	0	0	0	0	525	19	0	0	
5	0	0	0	0	0	0	526	19	0	0	
6	0	0	0	0	0	0	625	24	0	0	
7	0	0	0	0	0	0	624	24	0	0	
8	0	0	0	0	0	0	573	22	0	0	
9	0	0	0	0	0	0	526	19	0	0	
10	0	0	0	0	0	0	543	19	0	0	
11	0	0	0	0	0	0	504	18	0	0	
12	0	0	0	0	0	0	527	19	0	0	
13	0	0	0	0	0	0	504	18	0	0	
14	0	0	0	0	0	0	527	19	0	0	
15	0	0	0	0	0	0	507	18	0	0	
0	0	0	0	0	0	0	528	19	0	0	
1	0	0	0	0	0	0	504	18	0	0	
2	0	0	0	0	0	0	527	19	0	0	
3	0	0	0	0	0	0	507	18	0	0	
4	0	0	0	0	0	0	528	19	0	0	
5	0	0	0	0	0	0	505	18	0	0	
6	0	0	0	0	0	0	527	19	0	0	
7	0	0	0	0	0	0	504	18	0	0	
8	0	0	0	0	0	0	528	19	0	0	
9	0	0	0	0	0	0	508	18	0	0	
10	0	0	0	0	0	0	531	19	0	0	
11	0	0	0	0	0	0	510	19	0	0	
12	0	0	0	0	0	0	535	19	0	0	
13	0	0	0	0	0	0	513	19	0	0	
14	0	0	0	0	0	0	537	19	0	0	
15	0	0	0	0	0	0	518	7	0	0	
0	0	0	0	0	0	0	543	20	0	0	
1	0	0	0	0	0	0	524	19	0	0	
2	0	0	0	0	0	0	547	20	0	0	
3	0	0	0	0	0	0	524	19	0	0	
4	0	0	0	0	0	0	547	20	0	0	
5	0	0	0	0	0	0	521	7	0	0	
6	0	0	0	0	0	0	542	19	0	0	
7	0	0	0	0	0	0	519	19	0	0	
8	0	0	0	0	0	0	537	7	0	0	
9	0	0	0	0	0	0	515	19	0	0	
10	0	0	0	0	0	0	536	19	0	0	
11	0	0	0	0	0	0	512	19	0	0	
12	0	0	0	0	0	0	535	19	0	0	
13	0	0	0	0	0	0	512	7	0	0	
14	0	0	0	0	0	0	532	19	0	0	
15	0	0	0	0	0	0	500	18	0	0	
0	0	0	0	0	0	0	521	19	0	0	
1	0	0	0	0	0	0	504	18	0	0	
2	0	0	0	0	0	0	526	19	0	0	
3	0	0	0	0	0	0	507	7	0	0	
4	0	0	0	0	0	0	528	7	0	0	
5	0	0	0	0	0	0	508	19	0	0	
6	0	0	0	0	0	0	529	19	0	0	
7	0	0	0	0	0	0	511	19	0	0	
8	0	0	0	0	0	0	531	19	0	0	
9	0	0	0	0	0	0	510	19	0	0	
10	0	0	0	0	0	0	532	19	0	0	
11	0	0	0	0	0	0	512	19	0	0	
12	0	0	0	0	0	0	534	19	0	0	
13	0	0	0	0	0	0	513	19	0	0	
14	0	0	0	0	0	0	536	7	0	0	
15	0	0	0	0	0	0	515	19	0	0	
0	0	0	0	0	0	0	536	19	0	0	
1	0	0	0	0	0	0	513	19	0	0	
2	0	0	0	0	0	0	536	19	0	0	
3	0	0	0	0	0	0	512	19	0	0	
4	0	0	0	0	0	0	532	19	0	0	
5	0	0	0	0	0	0	512	19	0	0	
6	0	0	0	0	0	0	534	19	0	0	
7	0	0	0	0	0	0	512	19	0	0	
8	0	0	0	0	0	0	534	7	0	0	
9	0	0	0	0	0	0	516	19	0	0	
10	0	0	0	0	0	0	540	19	0	0	
11	0	0	0	0	0	0	519	19	0	0	
12	0	0	0	0	0	0	542	19	0	0	
13	0	0	0	0	0	0	519	19	0	0	
14	0	0	0	0	0	0	537	19	0	0	
15	0	0	0	0	0	0	515	19	0	0	
0	0	0	0	0	0	0	536	19	0	0	
1	0	0	0	0	0	0	519	7	0	0	
2	0	0	0	0	0	0	540	19	0	0	
3	0	0	0	0	0	0	516	19	0	0	
4	0	0	0	0	0	0	530	19	0	0	
5	0	0	0	0	0	0	502	18	0	0	
6	0	0	0	0	0	0	550	20	0	0	
7	0	0	0	0	0	0	614	24	0	0	
8	0	0	0	0	0	0	660	27	0	0	
9	0	0	0	0	0	0	555	20	0	0	
10	0	0	0	0	0	0	556	20	0	0	
11	0	0	0	0	0	0	524	19	0	0	
12	0	0	0	0	0	0	529	19	0	0	
13	0	0	0	0	0	0	510	19	0	0	
14	0	0	0	0	0	0	527	19	0	0	
15	0	0	0	0	0	0	508	18	0	0	
0	0	0	0	0	0	0	527	19	0	0	
1	0	0	0	0	0	0	505	18	0	0	
2	0	0	0	0	0	0	527	19	0	0	
3	0	0	0	0	0	0	508	19	0	0	
4	0	0	0	0	0	0	528	19	0	0	
5	0	0	0	0	0	0	511	19	0	0	
6	0	0	0	0	0	0	529	19	0	0	
7	0	0	0	0	0	0	511	19	0	0	
8	0	0	0	0	0	0	531	19	0	0	
9	0	0	0	0	0	0	511	19	0	0	
10	0	0	0	0	0	0	531	19	0	0	
11	0	0	0	0	0	0	512	19	0	0	
12	0	0	0	0	0	0	531	19	0	0	
13	0	0	0	0	0	0	511	19	0	0	
14	0	0	0	0	0	0	531	19	0	0	
15	0	0	0	0	0	0	513	19	0	0	
0	0	0	0	0	0	0	532	19	0	0	
1	0	0	0	0	0	0	515	19	0	0	
2	0	0	0	0	0	0	536	19	0	0	
3	0	0	0	0	0	0	519	19	0	0	
4	0	0	0	0	0	0	536	19	0	0	
5	0	0	0	0	0	0	515	19	0	0	
6	0	0	0	0	0	0	534	19	0	0	
7	0	0	0	0	0	0	512	19	0	0	
8	0	0	0	0	0	0	529	19	0	0	
9	0	0	0	0	0	0	508	18	0	0	
10	0	0	0	0	0	0	524	19	0	0	
11	0	0	0	0	0	0	508	18	0	0	
12	0	0	0	0	0	0	526	19	0	0	
13	0	0	0	0	0	0	508	18	0	0	
14	0	0	0	0	0	0	527	19	0	0	
15	0	0	0	0	0	0	508	19	0	0	
0	0	0	0	0	0	0	527	19	0	0	
1	0	0	0	0	0	0	508	18	0	0	
2	0	0	0	0	0	0	526	19	0	0	
3	0	0	0	0	0	0	508	7	0	0	
4	0	0	0	0	0	0	527	19	0	0	
5	0	0	0	0	0	0	511	19	0	0	
6	0	0	0	0	0	0	529	19	0	0	
7	0	0	0	0	0	0	511	19	0	0	
8	0	0	0	0	0	0	529	19	0	0	
9	0	0	0	0	0	0	511	19	0	0	
10	0	0	0	0	0	0	527	19	0	0	
11	0	0	0	0	0	0	508	19	0	0	
12	0	0	0	0	0	0	526	19	0	0	
13	0	0	0	0	0	0	508	18	0	0	
14	0	0	0	0	0	0	526	19	0	0	
15	0	0	0	0	0	0	508	18	0	0	
0	0	0	0	0	0	0	525	19	0	0	
1	0	0	0	0	0	0	508	18	0	0	
2	0	0	0	0	0	0	526	19	0	0	
3	0	0	0	0	0	0	508	19	0	0	
4	0	0	0	0	0	0	527	19	0	0	
5	0	0	0	0	0	0	510	19	0	0	
6	0	0	0	0	0	0	527	19	0	0	
7	0	0	0	0	0	0	510	19	0	0	
8	0	0	0	0	0	0	527	19	0	0	
9	0	0	0	0	0	0	511	19	0	0	
10	0	0	0	0	0	0	527	19	0	0	
11	0	0	0	0	0	0	511	19	0	0	
12	0	0	0	0	0	0	531	19	0	0	
13	0	0	0	0	0	0	515	19	0	0	
14	0	0	0	0	0	0	531	19	0	0	
15	0	0	0	0	0	0	513	19	0	0	
0	0	0	0	0	0	0	527	19	0	0	
1	0	0	0	0	0	0	508	18	0	0	
2	0	0	0	0	0	0	521	19	0	0	
3	0	0	0	0	0	0	505	18	0	0	
4	0	0	0	0	0	0	524	19	0	0	
5	0	0	0	0	0	0	505	18	0	0	
6	0	0	0	0	0	0	519	19	0	0	
7	0	0	0	0	0	0	496	7	0	0	
8	0	0	0	0	0	0	515	19	0	0	
9	0	0	0	0	0	0	543	20	0	0	
10	0	0	0	0	0	0	630	24	0	0	
11	0	0	0	0	0	0	591	23	0	0	
12	0	0	0	0	0	0	536	19	0	0	
13	0	0	0	0	0	0	519	19	0	0	
14	0	0	0	0	0	0	525	19	0	0	
15	0	0	0	0	0	0	502	18	0	0	
0	0	0	0	0	0	0	518	19	0	0	
1	0	0	0	0	0	0	500	18	0	0	
2	0	0	0	0	0	0	519	19	0	0	
3	0	0	0	0	0	0	504	18	0	0	
4	0	0	0	0	0	0	519	19	0	0	
5	0	0	0	0	0	0	504	18	0	0	
6	0	0	0	0	0	0	520	19	0	0	
7	0	0	0	0	0	0	504	18	0	0	
8	0	0	0	0	0	0	519	19	0	0	
9	0	0	0	0	0	0	504	18	0	0	
10	0	0	0	0	0	0	519	19	0	0	
11	0	0	0	0	0	0	504	18	0	0	
12	0	0	0	0	0	0	519	19	0	0	
13	0	0	0	0	0	0	504	18	0	0	
14	0	0	0	0	0	0	521	19	0	0	
15	0	0	0	0	0	0	507	18	0	0	
0	0	0	0	0	0	0	524	19	0	0	
1	0	0	0	0	0	0	510	7	0	0	
2	0	0	0	0	0	0	527	19	0	0	
3	0	0	0	0	0	0	515	19	0	0	
4	0	0	0	0	0	0	531	19	0	0	
5	0	0	0	0	0	0	518	19	0	0	
6	0	0	0	0	0	0	535	19	0	0	
7	0	0	0	0	0	0	518	19	0	0	
8	0	0	0	0	0	0	531	19	0	0	
9	0	0	0	0	0	0	513	7	0	0	
10	0	0	0	0	0	0	526	19	0	0	
11	0	0	0	0	0	0	510	19	0	0	
12	0	0	0	0	0	0	525	19	0	0	
13	0	0	0	0	0	0	510	19	0	0	
14	0	0	0	0	0	0	526	19	0	0	
15	0	0	0	0	0	0	512	19	0	0	
0	0	0	0	0	0	0	527	19	0	0	
1	0	0	0	0	0	0	514	19	0	0	
2	0	0	0	0	0	0	530	7	0	0	
3	0	0	0	0	0	0	516	19	0	0	
4	0	0	0	0	0	0	531	19	0	0	
5	0	0	0	0	0	0	518	19	0	0	
6	0	0	0	0	0	0	532	19	0	0	
7	0	0	0	0	0	0	519	19	0	0	
8	0	0	0	0	0	0	536	19	0	0	
9	0	0	0	0	0	0	519	19	0	0	
10	0	0	0	0	0	0	535	19	0	0	
11	0	0	0	0	0	0	519	19	0	0	
12	0	0	0	0	0	0	534	19	0	0	
13	0	0	0	0	0	0	519	19	0	0	
14	0	0	0	0	0	0	532	19	0	0	
15	0	0	0	0	0	0	519	19	0	0	
0	0	0	0	0	0	0	532	19	0	0	
1	0	0	0	0	0	0	518	19	0	0	
2	0	0	0	0	0	0	532	19	0	0	
3	0	0	0	0	0	0	518	19	0	0	
4	0	0	0	0	0	0	532	19	0	0	
5	0	0	0	0	0	0	518	19	0	0	
6	0	0	0	0	0	0	531	19	0	0	
7	0	0	0	0	0	0	518	7	0	0	
8	0	0	0	0	0	0	535	19	0	0	
9	0	0	0	0	0	0	519	19	0	0	
10	0	0	0	0	0	0	537	19	0	0	
11	0	0	0	0	0	0	526	19	0	0	
12	0	0	0	0	0	0	540	19	0	0	
13	0	0	0	0	0	0	527	19	0	0	
14	0	0	0	0	0	0	539	19	0	0	
15	0	0	0	0	0	0	523	19	0	0	
0	0	0	0	0	0	0	531	19	0	0	
1	0	0	0	0	0	0	518	19	0	0	
2	0	0	0	0	0	0	532	19	0	0	
3	0	0	0	0	0	0	519	19	0	0	
4	0	0	0	0	0	0	532	19	0	0	
5	0	0	0	0	0	0	516	19	0	0	
6	0	0	0	0	0	0	524	19	0	0	
7	0	0	0	0	0	0	516	19	0	0	
8	0	0	0	0	0	0	585	23	0	0	
9	0	0	0	0	0	0	625	24	0	0	
10	0	0	0	0	0	0	596	23	0	0	
11	0	0	0	0	0	0	526	19	0	0	
12	0	0	0	0	0	0	547	7	0	0	
13	0	0	0	0	0	0	519	19	0	0	
14	0	0	0	0	0	0	528	19	0	0	
15	0	0	0	0	0	0	515	19	0	0	
0	0	0	0	0	0	0	529	7	0	0	
1	0	0	0	0	0	0	517	19	0	0	
2	0	0	0	0	0	0	529	19	0	0	
3	0	0	0	0	0	0	516	19	0	0	
4	0	0	0	0	0	0	531	19	0	0	
5	0	0	0	0	0	0	519	19	0	0	
6	0	0	0	0	0	0	531	19	0	0	
7	0	0	0	0	0	0	519	19	0	0	
8	0	0	0	0	0	0	534	19	0	0	
9	0	0	0	0	0	0	520	19	0	0	
10	0	0	0	0	0	0	533	19	0	0	
11	0	0	0	0	0	0	519	19	0	0	
12	0	0	0	0	0	0	534	19	0	0	
13	0	0	0	0	0	0	524	19	0	0	
14	0	0	0	0	0	0	537	19	0	0	
15	0	0	0	0	0	0	526	19	0	0	
0	0	0	0	0	0	0	540	19	0	0	
1	0	0	0	0	0	0	530	19	0	0	
2	0	0	0	0	0	0	543	19	0	0	
3	0	0	0	0	0	0	532	19	0	0	
4	0	0	0	0	0	0	545	20	0	0	
5	0	0	0	0	0	0	532	19	0	0	
6	0	0	0	0	0	0	543	19	0	0	
7	0	0	0	0	0	0	529	19	0	0	
8	0	0	0	0	0	0	539	19	0	0	
9	0	0	0	0	0	0	524	19	0	0	
10	0	0	0	0	0	0	534	19	0	0	
11	0	0	0	0	0	0	521	19	0	0	
12	0	0	0	0	0	0	534	19	0	0	
13	0	0	0	0	0	0	520	19	0	0	
14	0	0	0	0	0	0	534	19	0	0	
15	0	0	0	0	0	0	521	19	0	0	
0	0	0	0	0	0	0	531	19	0	0	
1	0	0	0	0	0	0	519	19	0	0	
2	0	0	0	0	0	0	531	19	0	0	
3	0	0	0	0	0	0	519	19	0	0	
4	0	0	0	0	0	0	533	19	0	0	
5	0	0	0	0	0	0	519	19	0	0	
6	0	0	0	0	0	0	532	19	0	0	
7	0	0	0	0	0	0	519	19	0	0	
8	0	0	0	0	0	0	531	19	0	0	
9	0	0	0	0	0	0	516	19	0	0	
10	0	0	0	0	0	0	519	19	0	0	
11	0	0	0	0	0	0	510	19	0	0	
12	0	0	0	0	0	0	524	19	0	0	
13	0	0	0	0	0	0	512	19	0	0	
14	0	0	0	0	0	0	524	19	0	0	
15	0	0	0	0	0	0	513	19	0	0	
0	0	0	0	0	0	0	524	19	0	0	
1	0	0	0	0	0	0	513	19	0	0	
2	0	0	0	0	0	0	527	19	0	0	
3	0	0	0	0	0	0	516	19	0	0	
4	0	0	0	0	0	0	529	7	0	0	
5	0	0	0	0	0	0	518	19	0	0	
6	0	0	0	0	0	0	527	19	0	0	
7	0	0	0	0	0	0	516	19	0	0	
8	0	0	0	0	0	0	529	19	0	0	
9	0	0	0	0	0	0	519	19	0	0	
10	0	0	0	0	0	0	531	19	0	0	
11	0	0	0	0	0	0	524	19	0	0	
12	0	0	0	0	0	0	539	19	0	0	
13	0	0	0	0	0	0	527	19	0	0	
14	0	0	0	0	0	0	536	19	0	0	
15	0	0	0	0	0	0	526	19	0	0	
0	0	0	0	0	0	0	536	19	0	0	
1	0	0	0	0	0	0	521	7	0	0	
2	0	0	0	0	0	0	530	19	0	0	
3	0	0	0	0	0	0	521	19	0	0	
4	0	0	0	0	0	0	531	19	0	0	
5	0	0	0	0	0	0	519	19	0	0	
6	0	0	0	0	0	0	524	19	0	0	
7	0	0	0	0	0	0	505	18	0	0	
8	0	0	0	0	0	0	526	19	0	0	
9	0	0	0	0	0	0	575	7	0	0	
10	0	0	0	0	0	0	647	25	0	0	
11	0	0	0	0	0	0	588	8	0	0	
12	0	0	0	0	0	0	545	20	0	0	
13	0	0	0	0	0	0	531	19	0	0	
14	0	0	0	0	0	0	527	19	0	0	
15	0	0	0	0	0	0	512	19	0	0	
0	0	0	0	0	0	0	524	19	0	0	
1	0	0	0	0	0	0	512	19	0	0	
2	0	0	0	0	0	0	524	19	0	0	
3	0	0	0	0	0	0	514	19	0	0	
4	0	0	0	0	0	0	526	19	0	0	
5	0	0	0	0	0	0	519	19	0	0	
6	0	0	0	0	0	0	529	19	0	0	
7	0	0	0	0	0	0	519	19	0	0	
8	0	0	0	0	0	0	529	19	0	0	
9	0	0	0	0	0	0	519	7	0	0	
10	0	0	0	0	0	0	528	19	0	0	
11	0	0	0	0	0	0	519	19	0	0	
12	0	0	0	0	0	0	528	19	0	0	
13	0	0	0	0	0	0	519	19	0	0	
14	0	0	0	0	0	0	529	19	0	0	
15	0	0	0	0	0	0	519	19	0	0	
0	0	0	0	0	0	0	531	19	0	0	
1	0	0	0	0	0	0	524	19	0	0	
2	0	0	0	0	0	0	536	19	0	0	
3	0	0	0	0	0	0	527	19	0	0	
4	0	0	0	0	0	0	540	19	0	0	
5	0	0	0	0	0	0	531	19	0	0	
6	0	0	0	0	0	0	540	19	0	0	
7	0	0	0	0	0	0	531	19	0	0	
8	0	0	0	0	0	0	540	19	0	0	
9	0	0	0	0	0	0	527	19	0	0	
10	0	0	0	0	0	0	536	19	0	0	
11	0	0	0	0	0	0	523	7	0	0	
12	0	0	0	0	0	0	529	19	0	0	
13	0	0	0	0	0	0	519	19	0	0	
14	0	0	0	0	0	0	531	19	0	0	
15	0	0	0	0	0	0	521	19	0	0	
0	0	0	0	0	0	0	531	19	0	0	
1	0	0	0	0	0	0	523	19	0	0	
2	0	0	0	0	0	0	531	19	0	0	
3	0	0	0	0	0	0	524	7	0	0	
4	0	0	0	0	0	0	534	19	0	0	
5	0	0	0	0	0	0	524	19	0	0	
6	0	0	0	0	0	0	531	19	0	0	
7	0	0	0	0	0	0	524	19	0	0	
8	0	0	0	0	0	0	532	19	0	0	
9	0	0	0	0	0	0	524	19	0	0	
10	0	0	0	0	0	0	534	19	0	0	
11	0	0	0	0	0	0	524	19	0	0	
12	0	0	0	0	0	0	532	19	0	0	
13	0	0	0	0	0	0	524	19	0	0	
14	0	0	0	0	0	0	531	19	0	0	
15	0	0	0	0	0	0	524	19	0	0	
0	0	0	0	0	0	0	532	19	0	0	
1	0	0	0	0	0	0	524	19	0	0	
2	0	0	0	0	0	0	536	19	0	0	
3	0	0	0	0	0	0	524	19	0	0	
4	0	0	0	0	0	0	536	19	0	0	
5	0	0	0	0	0	0	527	19	0	0	
6	0	0	0	0	0	0	535	19	0	0	
7	0	0	0	0	0	0	527	19	0	0	
8	0	0	0	0	0	0	534	19	0	0	
9	0	0	0	0	0	0	526	19	0	0	
10	0	0	0	0	0	0	534	19	0	0	
11	0	0	0	0	0	0	524	19	0	0	
12	0	0	0	0	0	0	534	19	0	0	
13	0	0	0	0	0	0	523	19	0	0	
14	0	0	0	0	0	0	531	19	0	0	
15	0	0	0	0	0	0	527	19	0	0	
0	0	0	0	0	0	0	536	19	0	0	
1	0	0	0	0	0	0	527	19	0	0	
2	0	0	0	0	0	0	534	19	0	0	
3	0	0	0	0	0	0	524	7	0	0	
4	0	0	0	0	0	0	527	19	0	0	
5	0	0	0	0	0	0	519	19	0	0	
6	0	0	0	0	0	0	527	7	0	0	
7	0	0	0	0	0	0	519	7	0	0	
8	0	0	0	0	0	0	526	19	0	0	
9	0	0	0	0	0	0	515	19	0	0	
10	0	0	0	0	0	0	513	19	0	0	
11	0	0	0	0	0	0	505	18	0	0	
12	0	0	0	0	0	0	563	21	0	0	
13	0	0	0	0	0	0	627	24	0	0	
14	0	0	0	0	0	0	615	24	0	0	
15	0	0	0	0	0	0	534	7	0	0	
0	0	0	0	0	0	0	542	7	0	0	
1	0	0	0	0	0	0	518	19	0	0	
2	0	0	0	0	0	0	519	19	0	0	
3	0	0	0	0	0	0	512	19	0	0	
4	0	0	0	0	0	0	519	19	0	0	
5	0	0	0	0	0	0	511	19	0	0	
6	0	0	0	0	0	0	519	19	0	0	
7	0	0	0	0	0	0	513	19	0	0	
8	0	0	0	0	0	0	523	19	0	0	
9	0	0	0	0	0	0	515	19	0	0	
10	0	0	0	0	0	0	524	19	0	0	
11	0	0	0	0	0	0	515	19	0	0	
12	0	0	0	0	0	0	523	19	0	0	
13	0	0	0	0	0	0	516	19	0	0	
14	0	0	0	0	0	0	526	19	0	0	
15	0	0	0	0	0	0	519	7	0	0	
0	0	0	0	0	0	0	525	7	0	0	
1	0	0	0	0	0	0	519	19	0	0	
2	0	0	0	0	0	0	527	19	0	0	
3	0	0	0	0	0	0	521	7	0	0	
4	0	0	0	0	0	0	531	19	0	0	
5	0	0	0	0	0	0	527	19	0	0	
6	0	0	0	0	0	0	534	7	0	0	
7	0	0	0	0	0	0	528	19	0	0	
8	0	0	0	0	0	0	536	19	0	0	
9	0	0	0	0	0	0	529	19	0	0	
10	0	0	0	0	0	0	536	19	0	0	
11	0	0	0	0	0	0	527	19	0	0	
12	0	0	0	0	0	0	531	7	0	0	
13	0	0	0	0	0	0	524	19	0	0	
14	0	0	0	0	0	0	529	19	0	0	
15	0	0	0	0	0	0	519	19	0	0	
0	0	0	0	0	0	0	526	19	0	0	
1	0	0	0	0	0	0	519	19	0	0	
2	0	0	0	0	0	0	527	7	0	0	
3	0	0	0	0	0	0	519	7	0	0	
4	0	0	0	0	0	0	527	19	0	0	
5	0	0	0	0	0	0	521	19	0	0	
6	0	0	0	0	0	0	527	19	0	0	
7	0	0	0	0	0	0	519	19	0	0	
8	0	0	0	0	0	0	527	19	0	0	
9	0	0	0	0	0	0	521	19	0	0	
10	0	0	0	0	0	0	527	19	0	0	
11	0	0	0	0	0	0	521	19	0	0	
12	0	0	0	0	0	0	527	19	0	0	
13	0	0	0	0	0	0	523	19	0	0	
14	0	0	0	0	0	0	527	7	0	0	
15	0	0	0	0	0	0	521	19	0	0	
0	0	0	0	0	0	0	526	19	0	0	
1	0	0	0	0	0	0	521	19	0	0	
2	0	0	0	0	0	0	527	19	0	0	
3	0	0	0	0	0	0	519	19	0	0	
4	0	0	0	0	0	0	527	19	0	0	
5	0	0	0	0	0	0	519	19	0	0	
6	0	0	0	0	0	0	527	19	0	0	
7	0	0	0	0	0	0	521	19	0	0	
8	0	0	0	0	0	0	527	19	0	0	
9	0	0	0	0	0	0	520	19	0	0	
10	0	0	0	0	0	0	527	19	0	0	
11	0	0	0	0	0	0	520	19	0	0	
12	0	0	0	0	0	0	527	19	0	0	
13	0	0	0	0	0	0	520	19	0	0	
14	0	0	0	0	0	0	527	19	0	0	
15	0	0	0	0	0	0	523	19	0	0	
0	0	0	0	0	0	0	528	19	0	0	
1	0	0	0	0	0	0	524	19	0	0	
2	0	0	0	0	0	0	529	19	0	0	
3	0	0	0	0	0	0	526	19	0	0	
4	0	0	0	0	0	0	531	19	0	0	
5	0	0	0	0	0	0	527	19	0	0	
6	0	0	0	0	0	0	536	19	0	0	
7	0	0	0	0	0	0	531	19	0	0	
8	0	0	0	0	0	0	536	19	0	0	
9	0	0	0	0	0	0	529	19	0	0	
10	0	0	0	0	0	0	533	7	0	0	
11	0	0	0	0	0	0	523	19	0	0	
12	0	0	0	0	0	0	526	19	0	0	
13	0	0	0	0	0	0	521	7	0	0	
14	0	0	0	0	0	0	526	19	0	0	
15	0	0	0	0	0	0	519	19	0	0	
0	0	0	0	0	0	0	518	19	0	0	
1	0	0	0	0	0	0	504	18	0	0	
2	0	0	0	0	0	0	527	19	0	0	
3	0	0	0	0	0	0	598	23	0	0	
4	0	0	0	0	0	0	643	25	0	0	
5	0	0	0	0	0	0	566	21	0	0	
6	0	0	0	0	0	0	540	19	0	0	
7	0	0	0	0	0	0	527	19	0	0	
8	0	0	0	0	0	0	518	19	0	0	
9	0	0	0	0	0	0	512	19	0	0	
10	0	0	0	0	0	0	516	7	0	0	
11	0	0	0	0	0	0	512	19	0	0	
12	0	0	0	0	0	0	516	19	0	0	
13	0	0	0	0	0	0	513	19	0	0	
14	0	0	0	0	0	0	519	19	0	0	
15	0	0	0	0	0	0	515	19	0	0	
0	0	0	0	0	0	0	518	7	0	0	
1	0	0	0	0	0	0	513	19	0	0	
2	0	0	0	0	0	0	518	19	0	0	
3	0	0	0	0	0	0	513	19	0	0	
4	0	0	0	0	0	0	516	19	0	0	
5	0	0	0	0	0	0	515	19	0	0	
6	0	0	0	0	0	0	518	19	0	0	
7	0	0	0	0	0	0	515	19	0	0	
8	0	0	0	0	0	0	521	19	0	0	
9	0	0	0	0	0	0	519	19	0	0	
10	0	0	0	0	0	0	524	19	0	0	
11	0	0	0	0	0	0	524	19	0	0	
12	0	0	0	0	0	0	527	19	0	0	
13	0	0	0	0	0	0	524	19	0	0	
14	0	0	0	0	0	0	526	19	0	0	
15	0	0	0	0	0	0	524	19	0	0	
0	0	0	0	0	0	0	526	19	0	0	
1	0	0	0	0	0	0	523	19	0	0	
2	0	0	0	0	0	0	524	19	0	0	
3	0	0	0	0	0	0	519	11	0	0	
4	0	0	0	0	0	0	520	19	0	0	
5	0	0	0	0	0	0	515	19	0	0	
6	0	0	0	0	0	0	515	19	0	0	
7	0	0	0	0	0	0	513	19	0	0	
8	0	0	0	0	0	0	518	19	0	0	
9	0	0	0	0	0	0	515	7	0	0	
10	0	0	0	0	0	0	519	19	0	0	
11	0	0	0	0	0	0	515	19	0	0	
12	0	0	0	0	0	0	521	19	0	0	
13	0	0	0	0	0	0	519	19	0	0	
14	0	0	0	0	0	0	521	19	0	0	
15	0	0	0	0	0	0	520	19	0	0	
0	0	0	0	0	0	0	524	19	0	0	
1	0	0	0	0	0	0	521	7	0	0	
2	0	0	0	0	0	0	524	19	0	0	
3	0	0	0	0	0	0	520	19	0	0	
4	0	0	0	0	0	0	524	19	0	0	
5	0	0	0	0	0	0	520	7	0	0	
6	0	0	0	0	0	0	527	19	0	0	
7	0	0	0	0	0	0	519	7	0	0	
8	0	0	0	0	0	0	523	19	0	0	
9	0	0	0	0	0	0	520	19	0	0	
10	0	0	0	0	0	0	521	19	0	0	
11	0	0	0	0	0	0	519	19	0	0	
12	0	0	0	0	0	0	521	19	0	0	
13	0	0	0	0	0	0	519	19	0	0	
14	0	0	0	0	0	0	521	19	0	0	
15	0	0	0	0	0	0	519	19	0	0	
0	0	0	0	0	0	0	525	19	0	0	
1	0	0	0	0	0	0	524	19	0	0	
2	0	0	0	0	0	0	525	19	0	0	
3	0	0	0	0	0	0	524	19	0	0	
4	0	0	0	0	0	0	526	19	0	0	
5	0	0	0	0	0	0	524	19	0	0	
6	0	0	0	0	0	0	523	19	0	0	
7	0	0	0	0	0	0	519	19	0	0	
8	0	0	0	0	0	0	521	19	0	0	
9	0	0	0	0	0	0	523	7	0	0	
10	0	0	0	0	0	0	523	19	0	0	
11	0	0	0	0	0	0	519	19	0	0	
12	0	0	0	0	0	0	526	7	0	0	
13	0	0	0	0	0	0	524	19	0	0	
14	0	0	0	0	0	0	526	19	0	0	
15	0	0	0	0	0	0	523	19	0	0	
0	0	0	0	0	0	0	524	19	0	0	
1	0	0	0	0	0	0	516	19	0	0	
2	0	0	0	0	0	0	512	19	0	0	
3	0	0	0	0	0	0	511	19	0	0	
4	0	0	0	0	0	0	511	19	0	0	
5	0	0	0	0	0	0	508	18	0	0	
6	0	0	0	0	0	0	501	18	0	0	
7	0	0	0	0	0	0	481	17	0	0	
8	0	0	0	0	0	0	472	16	0	0	
9	0	0	0	0	0	0	495	17	0	0	
10	0	0	0	0	0	0	540	19	0	0	
11	0	0	0	0	0	0	508	19	0	0	
12	0	0	0	0	0	0	425	15	0	0	
13	0	0	0	0	0	0	417	14	0	0	
14	0	0	0	0	0	0	420	14	0	0	
15	0	0	0	0	0	0	417	14	0	0	
0	0	0	0	0	0	0	433	6	0	0	
1	0	0	0	0	0	0	441	15	0	0	
2	0	0	0	0	0	0	457	15	0	0	
3	0	0	0	0	0	0	463	15	0	0	
4	0	0	0	0	0	0	480	17	0	0	
5	0	0	0	0	0	0	493	17	0	0	
6	0	0	0	0	0	0	507	18	0	0	
7	0	0	0	0	0	0	519	19	0	0	
8	0	0	0	0	0	0	533	19	0	0	
9	0	0	0	0	0	0	543	19	0	0	
10	0	0	0	0	0	0	553	20	0	0	
11	0	0	0	0	0	0	563	21	0	0	
12	0	0	0	0	0	0	575	7	0	0	
13	0	0	0	0	0	0	583	22	0	0	
14	0	0	0	0	0	0	591	23	0	0	
15	0	0	0	0	0	0	593	23	0	0	
0	0	0	0	0	0	0	600	23	0	0	
1	0	0	0	0	0	0	595	23	0	0	
2	0	0	0	0	0	0	595	23	0	0	
3	0	0	0	0	0	0	591	23	0	0	
4	0	0	0	0	0	0	588	23	0	0	
5	0	0	0	0	0	0	582	22	0	0	
6	0	0	0	0	0	0	579	22	0	0	
7	0	0	0	0	0	0	575	22	0	0	
8	0	0	0	0	0	0	572	22	0	0	
9	0	0	0	0	0	0	568	22	0	0	
10	0	0	0	0	0	0	556	20	0	0	
11	0	0	0	0	0	0	543	20	0	0	
12	0	0	0	0	0	0	540	19	0	0	
13	0	0	0	0	0	0	535	19	0	0	
14	0	0	0	0	0	0	527	19	0	0	
15	0	0	0	0	0	0	523	19	0	0	
0	0	0	0	0	0	0	519	19	0	0	
1	0	0	0	0	0	0	515	19	0	0	
2	0	0	0	0	0	0	510	19	0	0	
3	0	0	0	0	0	0	505	18	0	0	
4	0	0	0	0	0	0	503	18	0	0	
5	0	0	0	0	0	0	499	17	0	0	
6	0	0	0	0	0	0	497	17	0	0	
7	0	0	0	0	0	0	499	7	0	0	
8	0	0	0	0	0	0	499	17	0	0	
9	0	0	0	0	0	0	502	18	0	0	
10	0	0	0	0	0	0	502	18	0	0	
11	0	0	0	0	0	0	504	18	0	0	
12	0	0	0	0	0	0	508	18	0	0	
13	0	0	0	0	0	0	511	19	0	0	
14	0	0	0	0	0	0	514	19	0	0	
15	0	0	0	0	0	0	515	19	0	0	
0	0	0	0	0	0	0	513	19	0	0	
1	0	0	0	0	0	0	512	19	0	0	
2	0	0	0	0	0	0	512	19	0	0	
3	0	0	0	0	0	0	510	19	0	0	
4	0	0	0	0	0	0	511	7	0	0	
5	0	0	0	0	0	0	512	19	0	0	
6	0	0	0	0	0	0	511	19	0	0	
7	0	0	0	0	0	0	512	19	0	0	
8	0	0	0	0	0	0	512	19	0	0	
9	0	0	0	0	0	0	513	19	0	0	
10	0	0	0	0	0	0	511	19	0	0	
11	0	0	0	0	0	0	511	19	0	0	
12	0	0	0	0	0	0	511	19	0	0	
13	0	0	0	0	0	0	512	19	0	0	
14	0	0	0	0	0	0	515	19	0	0	
15	0	0	0	0	0	0	515	19	0	0	
0	0	0	0	0	0	0	512	19	0	0	
1	0	0	0	0	0	0	516	19	0	0	
2	0	0	0	0	0	0	516	19	0	0	
3	0	0	0	0	0	0	519	19	0	0	
4	0	0	0	0	0	0	519	19	0	0	
5	0	0	0	0	0	0	515	19	0	0	
6	0	0	0	0	0	0	510	19	0	0	
7	0	0	0	0	0	0	510	19	0	0	
8	0	0	0	0	0	0	510	19	0	0	
9	0	0	0	0	0	0	508	18	0	0	
10	0	0	0	0	0	0	504	18	0	0	
11	0	0	0	0	0	0	501	18	0	0	
12	0	0	0	0	0	0	489	17	0	0	
13	0	0	0	0	0	0	492	17	0	0	
14	0	0	0	0	0	0	547	20	0	0	
15	0	0	0	0	0	0	617	24	0	0	
0	0	0	0	0	0	0	575	22	0	0	
1	0	0	0	0	0	0	512	19	0	0	
2	0	0	0	0	0	0	519	19	0	0	
3	0	0	0	0	0	0	504	18	0	0	
4	0	0	0	0	0	0	502	18	0	0	
5	0	0	0	0	0	0	504	18	0	0	
6	0	0	0	0	0	0	500	18	0	0	
7	0	0	0	0	0	0	504	18	0	0	
8	0	0	0	0	0	0	504	18	0	0	
9	0	0	0	0	0	0	511	19	0	0	
10	0	0	0	0	0	0	512	19	0	0	
11	0	0	0	0	0	0	518	19	0	0	
12	0	0	0	0	0	0	518	19	0	0	
13	0	0	0	0	0	0	519	19	0	0	
14	0	0	0	0	0	0	518	19	0	0	
15	0	0	0	0	0	0	519	19	0	0	
0	0	0	0	0	0	0	516	19	0	0	
1	0	0	0	0	0	0	519	19	0	0	
2	0	0	0	0	0	0	516	19	0	0	
3	0	0	0	0	0	0	518	7	0	0	
4	0	0	0	0	0	0	517	19	0	0	
5	0	0	0	0	0	0	521	19	0	0	
6	0	0	0	0	0	0	523	19	0	0	
7	0	0	0	0	0	0	527	19	0	0	
8	0	0	0	0	0	0	526	19	0	0	
9	0	0	0	0	0	0	532	19	0	0	
10	0	0	0	0	0	0	531	7	0	0	
11	0	0	0	0	0	0	536	19	0	0	
12	0	0	0	0	0	0	531	19	0	0	
13	0	0	0	0	0	0	531	19	0	0	
14	0	0	0	0	0	0	527	19	0	0	
15	0	0	0	0	0	0	526	19	0	0	
0	0	0	0	0	0	0	519	19	0	0	
1	0	0	0	0	0	0	519	7	0	0	
2	0	0	0	0	0	0	513	19	0	0	
3	0	0	0	0	0	0	518	19	0	0	
4	0	0	0	0	0	0	515	19	0	0	
5	0	0	0	0	0	0	519	19	0	0	
6	0	0	0	0	0	0	515	19	0	0	
7	0	0	0	0	0	0	519	19	0	0	
8	0	0	0	0	0	0	513	19	0	0	
9	0	0	0	0	0	0	515	19	0	0	
10	0	0	0	0	0	0	515	19	0	0	
11	0	0	0	0	0	0	519	19	0	0	
12	0	0	0	0	0	0	513	19	0	0	
13	0	0	0	0	0	0	519	19	0	0	
14	0	0	0	0	0	0	515	19	0	0	
15	0	0	0	0	0	0	519	7	0	0	
0	0	0	0	0	0	0	518	19	0	0	
1	0	0	0	0	0	0	520	19	0	0	
2	0	0	0	0	0	0	518	19	0	0	
3	0	0	0	0	0	0	524	19	0	0	
4	0	0	0	0	0	0	521	19	0	0	
5	0	0	0	0	0	0	524	19	0	0	
6	0	0	0	0	0	0	519	19	0	0	
7	0	0	0	0	0	0	524	19	0	0	
8	0	0	0	0	0	0	520	19	0	0	
9	0	0	0	0	0	0	526	19	0	0	
10	0	0	0	0	0	0	523	19	0	0	
11	0	0	0	0	0	0	527	7	0	0	
12	0	0	0	0	0	0	524	19	0	0	
13	0	0	0	0	0	0	527	7	0	0	
14	0	0	0	0	0	0	524	19	0	0	
15	0	0	0	0	0	0	529	19	0	0	
0	0	0	0	0	0	0	526	19	0	0	
1	0	0	0	0	0	0	536	19	0	0	
2	0	0	0	0	0	0	529	19	0	0	
3	0	0	0	0	0	0	531	19	0	0	
4	0	0	0	0	0	0	521	19	0	0	
5	0	0	0	0	0	0	523	19	0	0	
6	0	0	0	0	0	0	515	19	0	0	
7	0	0	0	0	0	0	521	19	0	0	
8	0	0	0	0	0	0	515	7	0	0	
9	0	0	0	0	0	0	524	19	0	0	
10	0	0	0	0	0	0	519	19	0	0	
11	0	0	0	0	0	0	519	19	0	0	
12	0	0	0	0	0	0	510	7	0	0	
13	0	0	0	0	0	0	527	19	0	0	
14	0	0	0	0	0	0	572	22	0	0	
15	0	0	0	0	0	0	604	24	0	0	
0	0	0	0	0	0	0	543	19	0	0	
1	0	0	0	0	0	0	519	19	0	0	
2	0	0	0	0	0	0	527	7	0	0	
3	0	0	0	0	0	0	519	19	0	0	
4	0	0	0	0	0	0	518	19	0	0	
5	0	0	0	0	0	0	522	19	0	0	
6	0	0	0	0	0	0	516	19	0	0	
7	0	0	0	0	0	0	521	19	0	0	
8	0	0	0	0	0	0	517	19	0	0	
9	0	0	0	0	0	0	524	19	0	0	
10	0	0	0	0	0	0	519	19	0	0	
11	0	0	0	0	0	0	527	19	0	0	
12	0	0	0	0	0	0	519	19	0	0	
13	0	0	0	0	0	0	526	19	0	0	
14	0	0	0	0	0	0	520	19	0	0	
15	0	0	0	0	0	0	527	19	0	0	
0	0	0	0	0	0	0	524	19	0	0	
1	0	0	0	0	0	0	531	19	0	0	
2	0	0	0	0	0	0	527	19	0	0	
3	0	0	0	0	0	0	536	19	0	0	
4	0	0	0	0	0	0	531	19	0	0	
5	0	0	0	0	0	0	540	19	0	0	
6	0	0	0	0	0	0	536	19	0	0	
7	0	0	0	0	0	0	543	20	0	0	
8	0	0	0	0	0	0	536	19	0	0	
9	0	0	0	0	0	0	545	20	0	0	
10	0	0	0	0	0	0	540	19	0	0	
11	0	0	0	0	0	0	545	20	0	0	
12	0	0	0	0	0	0	539	19	0	0	
13	0	0	0	0	0	0	542	19	0	0	
14	0	0	0	0	0	0	531	19	0	0	
15	0	0	0	0	0	0	531	19	0	0	
0	0	0	0	0	0	0	524	19	0	0	
1	0	0	0	0	0	0	527	19	0	0	
2	0	0	0	0	0	0	519	19	0	0	
3	0	0	0	0	0	0	526	19	0	0	
4	0	0	0	0	0	0	519	19	0	0	
5	0	0	0	0	0	0	527	19	0	0	
6	0	0	0	0	0	0	519	19	0	0	
7	0	0	0	0	0	0	527	19	0	0	
8	0	0	0	0	0	0	520	19	0	0	
9	0	0	0	0	0	0	527	19	0	0	
10	0	0	0	0	0	0	522	19	0	0	
11	0	0	0	0	0	0	529	19	0	0	
12	0	0	0	0	0	0	524	19	0	0	
13	0	0	0	0	0	0	531	19	0	0	
14	0	0	0	0	0	0	524	19	0	0	
15	0	0	0	0	0	0	531	19	0	0	
0	0	0	0	0	0	0	527	19	0	0	
1	0	0	0	0	0	0	534	19	0	0	
2	0	0	0	0	0	0	526	19	0	0	
3	0	0	0	0	0	0	534	19	0	0	
4	0	0	0	0	0	0	526	19	0	0	
5	0	0	0	0	0	0	534	19	0	0	
6	0	0	0	0	0	0	524	19	0	0	
7	0	0	0	0	0	0	531	19	0	0	
8	0	0	0	0	0	0	527	19	0	0	
9	0	0	0	0	0	0	536	19	0	0	
10	0	0	0	0	0	0	531	19	0	0	
11	0	0	0	0	0	0	542	19	0	0	
12	0	0	0	0	0	0	536	19	0	0	
13	0	0	0	0	0	0	545	7	0	0	
14	0	0	0	0	0	0	535	19	0	0	
15	0	0	0	0	0	0	540	19	0	0	
0	0	0	0	0	0	0	529	19	0	0	
1	0	0	0	0	0	0	536	19	0	0	
2	0	0	0	0	0	0	528	19	0	0	
3	0	0	0	0	0	0	537	19	0	0	
4	0	0	0	0	0	0	526	19	0	0	
5	0	0	0	0	0	0	527	19	0	0	
6	0	0	0	0	0	0	515	19	0	0	
7	0	0	0	0	0	0	545	7	0	0	
8	0	0	0	0	0	0	595	23	0	0	
9	0	0	0	0	0	0	609	24	0	0	
10	0	0	0	0	0	0	536	19	0	0	
11	0	0	0	0	0	0	536	19	0	0	
12	0	0	0	0	0	0	531	19	0	0	
13	0	0	0	0	0	0	531	19	0	0	
14	0	0	0	0	0	0	524	19	0	0	
15	0	0	0	0	0	0	529	7	0	0	
0	0	0	0	0	0	0	524	19	0	0	
1	0	0	0	0	0	0	532	19	0	0	
2	0	0	0	0	0	0	524	19	0	0	
3	0	0	0	0	0	0	535	19	0	0	
4	0	0	0	0	0	0	527	19	0	0	
5	0	0	0	0	0	0	535	19	0	0	
6	0	0	0	0	0	0	527	19	0	0	
7	0	0	0	0	0	0	534	19	0	0	
8	0	0	0	0	0	0	526	19	0	0	
9	0	0	0	0	0	0	536	19	0	0	
10	0	0	0	0	0	0	527	19	0	0	
11	0	0	0	0	0	0	537	19	0	0	
12	0	0	0	0	0	0	527	19	0	0	
13	0	0	0	0	0	0	537	19	0	0	
14	0	0	0	0	0	0	529	19	0	0	
15	0	0	0	0	0	0	540	19	0	0	
0	0	0	0	0	0	0	534	19	0	0	
1	0	0	0	0	0	0	543	19	0	0	
2	0	0	0	0	0	0	536	19	0	0	
3	0	0	0	0	0	0	545	20	0	0	
4	0	0	0	0	0	0	536	19	0	0	
5	0	0	0	0	0	0	543	19	0	0	
6	0	0	0	0	0	0	534	19	0	0	
7	0	0	0	0	0	0	541	19	0	0	
8	0	0	0	0	0	0	529	19	0	0	
9	0	0	0	0	0	0	536	19	0	0	
10	0	0	0	0	0	0	524	19	0	0	
11	0	0	0	0	0	0	531	19	0	0	
12	0	0	0	0	0	0	524	19	0	0	
13	0	0	0	0	0	0	531	19	0	0	
14	0	0	0	0	0	0	521	19	0	0	
15	0	0	0	0	0	0	531	19	0	0	
0	0	0	0	0	0	0	523	19	0	0	
1	0	0	0	0	0	0	532	19	0	0	
2	0	0	0	0	0	0	524	19	0	0	
3	0	0	0	0	0	0	534	19	0	0	
4	0	0	0	0	0	0	524	7	0	0	
5	0	0	0	0	0	0	534	19	0	0	
6	0	0	0	0	0	0	524	19	0	0	
7	0	0	0	0	0	0	531	19	0	0	
8	0	0	0	0	0	0	524	7	0	0	
9	0	0	0	0	0	0	534	19	0	0	
10	0	0	0	0	0	0	524	7	0	0	
11	0	0	0	0	0	0	534	7	0	0	
12	0	0	0	0	0	0	523	19	0	0	
13	0	0	0	0	0	0	531	19	0	0	
14	0	0	0	0	0	0	521	19	0	0	
15	0	0	0	0	0	0	531	19	0	0	
0	0	0	0	0	0	0	523	19	0	0	
1	0	0	0	0	0	0	531	19	0	0	
2	0	0	0	0	0	0	524	19	0	0	
3	0	0	0	0	0	0	533	19	0	0	
4	0	0	0	0	0	0	529	19	0	0	
5	0	0	0	0	0	0	539	19	0	0	
6	0	0	0	0	0	0	527	7	0	0	
7	0	0	0	0	0	0	536	19	0	0	
8	0	0	0	0	0	0	523	19	0	0	
9	0	0	0	0	0	0	527	19	0	0	
10	0	0	0	0	0	0	516	19	0	0	
11	0	0	0	0	0	0	527	19	0	0	
12	0	0	0	0	0	0	519	19	0	0	
13	0	0	0	0	0	0	526	19	0	0	
14	0	0	0	0	0	0	511	19	0	0	
15	0	0	0	0	0	0	513	19	0	0	
0	0	0	0	0	0	0	519	19	0	0	
1	0	0	0	0	0	0	593	23	0	0	
2	0	0	0	0	0	0	617	24	0	0	
3	0	0	0	0	0	0	568	22	0	0	
4	0	0	0	0	0	0	525	19	0	0	
5	0	0	0	0	0	0	536	19	0	0	
6	0	0	0	0	0	0	512	19	0	0	
7	0	0	0	0	0	0	523	19	0	0	
8	0	0	0	0	0	0	513	7	0	0	
9	0	0	0	0	0	0	524	19	0	0	
10	0	0	0	0	0	0	513	19	0	0	
11	0	0	0	0	0	0	523	19	0	0	
12	0	0	0	0	0	0	512	19	0	0	
13	0	0	0	0	0	0	524	19	0	0	
14	0	0	0	0	0	0	516	19	0	0	
15	0	0	0	0	0	0	526	19	0	0	
0	0	0	0	0	0	0	516	19	0	0	
1	0	0	0	0	0	0	527	19	0	0	
2	0	0	0	0	0	0	515	19	0	0	
3	0	0	0	0	0	0	527	19	0	0	
4	0	0	0	0	0	0	519	19	0	0	
5	0	0	0	0	0	0	529	19	0	0	
6	0	0	0	0	0	0	519	19	0	0	
7	0	0	0	0	0	0	532	19	0	0	
8	0	0	0	0	0	0	526	19	0	0	
9	0	0	0	0	0	0	536	19	0	0	
10	0	0	0	0	0	0	526	19	0	0	
11	0	0	0	0	0	0	537	19	0	0	
12	0	0	0	0	0	0	527	19	0	0	
13	0	0	0	0	0	0	540	19	0	0	
14	0	0	0	0	0	0	528	19	0	0	
15	0	0	0	0	0	0	537	19	0	0	
0	0	0	0	0	0	0	524	19	0	0	
1	0	0	0	0	0	0	535	19	0	0	
2	0	0	0	0	0	0	519	19	0	0	
3	0	0	0	0	0	0	531	7	0	0	
4	0	0	0	0	0	0	519	19	0	0	
5	0	0	0	0	0	0	532	19	0	0	
6	0	0	0	0	0	0	519	19	0	0	
7	0	0	0	0	0	0	529	19	0	0	
8	0	0	0	0	0	0	519	19	0	0	
9	0	0	0	0	0	0	527	19	0	0	
10	0	0	0	0	0	0	518	19	0	0	
11	0	0	0	0	0	0	531	19	0	0	
12	0	0	0	0	0	0	519	19	0	0	
13	0	0	0	0	0	0	531	19	0	0	
14	0	0	0	0	0	0	522	19	0	0	
15	0	0	0	0	0	0	535	7	0	0	
0	0	0	0	0	0	0	523	19	0	0	
1	0	0	0	0	0	0	532	19	0	0	
2	0	0	0	0	0	0	521	19	0	0	
3	0	0	0	0	0	0	531	19	0	0	
4	0	0	0	0	0	0	519	19	0	0	
5	0	0	0	0	0	0	529	19	0	0	
6	0	0	0	0	0	0	518	19	0	0	
7	0	0	0	0	0	0	527	19	0	0	
8	0	0	0	0	0	0	515	19	0	0	
9	0	0	0	0	0	0	527	19	0	0	
10	0	0	0	0	0	0	518	19	0	0	
11	0	0	0	0	0	0	531	7	0	0	
12	0	0	0	0	0	0	521	19	0	0	
13	0	0	0	0	0	0	535	19	0	0	
14	0	0	0	0	0	0	527	19	0	0	
15	0	0	0	0	0	0	540	19	0	0	
0	0	0	0	0	0	0	527	19	0	0	
1	0	0	0	0	0	0	540	19	0	0	
2	0	0	0	0	0	0	526	19	0	0	
3	0	0	0	0	0	0	535	19	0	0	
4	0	0	0	0	0	0	519	19	0	0	
5	0	0	0	0	0	0	531	19	0	0	
6	0	0	0	0	0	0	519	19	0	0	
7	0	0	0	0	0	0	531	19	0	0	
8	0	0	0	0	0	0	518	7	0	0	
9	0	0	0	0	0	0	524	7	0	0	
10	0	0	0	0	0	0	505	18	0	0	
11	0	0	0	0	0	0	544	20	0	0	
12	0	0	0	0	0	0	603	24	0	0	
13	0	0	0	0	0	0	627	24	0	0	
14	0	0	0	0	0	0	545	20	0	0	
15	0	0	0	0	0	0	543	19	0	0	
0	0	0	0	0	0	0	527	19	0	0	
1	0	0	0	0	0	0	527	19	0	0	
2	0	0	0	0	0	0	512	19	0	0	
3	0	0	0	0	0	0	525	19	0	0	
4	0	0	0	0	0	0	512	19	0	0	
5	0	0	0	0	0	0	524	19	0	0	
6	0	0	0	0	0	0	511	19	0	0	
7	0	0	0	0	0	0	521	19	0	0	
8	0	0	0	0	0	0	511	19	0	0	
9	0	0	0	0	0	0	524	19	0	0	
10	0	0	0	0	0	0	512	19	0	0	
11	0	0	0	0	0	0	524	19	0	0	
12	0	0	0	0	0	0	515	19	0	0	
13	0	0	0	0	0	0	527	19	0	0	
14	0	0	0	0	0	0	515	19	0	0	
15	0	0	0	0	0	0	527	19	0	0	
0	0	0	0	0	0	0	518	19	0	0	
1	0	0	0	0	0	0	533	19	0	0	
2	0	0	0	0	0	0	523	19	0	0	
3	0	0	0	0	0	0	536	19	0	0	
4	0	0	0	0	0	0	527	19	0	0	
5	0	0	0	0	0	0	540	19	0	0	
6	0	0	0	0	0	0	527	19	0	0	
7	0	0	0	0	0	0	543	19	0	0	
8	0	0	0	0	0	0	530	7	0	0	
9	0	0	0	0	0	0	542	19	0	0	
10	0	0	0	0	0	0	527	19	0	0	
11	0	0	0	0	0	0	537	7	0	0	
12	0	0	0	0	0	0	521	7	0	0	
13	0	0	0	0	0	0	531	19	0	0	
14	0	0	0	0	0	0	517	19	0	0	
15	0	0	0	0	0	0	527	19	0	0	
0	0	0	0	0	0	0	516	19	0	0	
1	0	0	0	0	0	0	528	19	0	0	
2	0	0	0	0	0	0	515	19	0	0	
3	0	0	0	0	0	0	527	19	0	0	
4	0	0	0	0	0	0	515	19	0	0	
5	0	0	0	0	0	0	527	19	0	0	
6	0	0	0	0	0	0	515	19	0	0	
7	0	0	0	0	0	0	529	19	0	0	
8	0	0	0	0	0	0	518	19	0	0	
9	0	0	0	0	0	0	531	19	0	0	
10	0	0	0	0	0	0	519	19	0	0	
11	0	0	0	0	0	0	531	19	0	0	
12	0	0	0	0	0	0	519	19	0	0	
13	0	0	0	0	0	0	534	19	0	0	
14	0	0	0	0	0	0	519	19	0	0	
15	0	0	0	0	0	0	534	19	0	0	
0	0	0	0	0	0	0	519	7	0	0	
1	0	0	0	0	0	0	534	19	0	0	
2	0	0	0	0	0	0	519	19	0	0	
3	0	0	0	0	0	0	532	7	0	0	
4	0	0	0	0	0	0	519	19	0	0	
5	0	0	0	0	0	0	536	19	0	0	
6	0	0	0	0	0	0	521	19	0	0	
7	0	0	0	0	0	0	534	12	0	0	
8	0	0	0	0	0	0	519	19	0	0	
9	0	0	0	0	0	0	535	19	0	0	
10	0	0	0	0	0	0	521	19	0	0	
11	0	0	0	0	0	0	536	19	0	0	
12	0	0	0	0	0	0	523	7	0	0	
13	0	0	0	0	0	0	537	19	0	0	
14	0	0	0	0	0	0	527	19	0	0	
15	0	0	0	0	0	0	542	19	0	0	
0	0	0	0	0	0	0	529	19	0	0	
1	0	0	0	0	0	0	543	19	0	0	
2	0	0	0	0	0	0	527	19	0	0	
3	0	0	0	0	0	0	540	19	0	0	
4	0	0	0	0	0	0	521	19	0	0	
5	0	0	0	0	0	0	532	19	0	0	
6	0	0	0	0	0	0	519	19	0	0	
7	0	0	0	0	0	0	536	19	0	0	
8	0	0	0	0	0	0	516	19	0	0	
9	0	0	0	0	0	0	524	19	0	0	
10	0	0	0	0	0	0	502	18	0	0	
11	0	0	0	0	0	0	534	19	0	0	
12	0	0	0	0	0	0	588	23	0	0	
13	0	0	0	0	0	0	632	24	0	0	
14	0	0	0	0	0	0	553	20	0	0	
15	0	0	0	0	0	0	536	19	0	0	
0	0	0	0	0	0	0	519	19	0	0	
1	0	0	0	0	0	0	519	19	0	0	
2	0	0	0	0	0	0	505	18	0	0	
3	0	0	0	0	0	0	519	19	0	0	
4	0	0	0	0	0	0	508	18	0	0	
5	0	0	0	0	0	0	519	19	0	0	
6	0	0	0	0	0	0	504	18	0	0	
7	0	0	0	0	0	0	519	19	0	0	
8	0	0	0	0	0	0	508	19	0	0	
9	0	0	0	0	0	0	523	19	0	0	
10	0	0	0	0	0	0	509	19	0	0	
11	0	0	0	0	0	0	527	19	0	0	
12	0	0	0	0	0	0	513	19	0	0	
13	0	0	0	0	0	0	528	19	0	0	
14	0	0	0	0	0	0	515	7	0	0	
15	0	0	0	0	0	0	529	19	0	0	
0	0	0	0	0	0	0	519	19	0	0	
1	0	0	0	0	0	0	537	19	0	0	
2	0	0	0	0	0	0	526	19	0	0	
3	0	0	0	0	0	0	542	19	0	0	
4	0	0	0	0	0	0	529	19	0	0	
5	0	0	0	0	0	0	546	20	0	0	
6	0	0	0	0	0	0	535	19	0	0	
7	0	0	0	0	0	0	551	20	0	0	
8	0	0	0	0	0	0	538	19	0	0	
9	0	0	0	0	0	0	553	20	0	0	
10	0	0	0	0	0	0	540	19	0	0	
11	0	0	0	0	0	0	551	20	0	0	
12	0	0	0	0	0	0	532	19	0	0	
13	0	0	0	0	0	0	545	20	0	0	
14	0	0	0	0	0	0	531	19	0	0	
15	0	0	0	0	0	0	545	20	0	0	
0	0	0	0	0	0	0	532	7	0	0	
1	0	0	0	0	0	0	549	20	0	0	
2	0	0	0	0	0	0	537	19	0	0	
3	0	0	0	0	0	0	553	20	0	0	
4	0	0	0	0	0	0	540	19	0	0	
5	0	0	0	0	0	0	556	20	0	0	
6	0	0	0	0	0	0	541	19	0	0	
7	0	0	0	0	0	0	556	20	0	0	
8	0	0	0	0	0	0	543	19	0	0	
9	0	0	0	0	0	0	558	20	0	0	
10	0	0	0	0	0	0	542	19	0	0	
11	0	0	0	0	0	0	556	20	0	0	
12	0	0	0	0	0	0	540	19	0	0	
13	0	0	0	0	0	0	553	20	0	0	
14	0	0	0	0	0	0	536	19	0	0	
15	0	0	0	0	0	0	550	20	0	0	
0	0	0	0	0	0	0	534	19	0	0	
1	0	0	0	0	0	0	547	7	0	0	
2	0	0	0	0	0	0	531	19	0	0	
3	0	0	0	0	0	0	547	20	0	0	
4	0	0	0	0	0	0	531	19	0	0	
5	0	0	0	0	0	0	545	20	0	0	
6	0	0	0	0	0	0	531	19	0	0	
7	0	0	0	0	0	0	543	19	0	0	
8	0	0	0	0	0	0	527	19	0	0	
9	0	0	0	0	0	0	540	19	0	0	
10	0	0	0	0	0	0	523	19	0	0	
11	0	0	0	0	0	0	536	19	0	0	
12	0	0	0	0	0	0	518	7	0	0	
13	0	0	0	0	0	0	530	19	0	0	
14	0	0	0	0	0	0	512	19	0	0	
15	0	0	0	0	0	0	526	19	0	0	
0	0	0	0	0	0	0	510	19	0	0	
1	0	0	0	0	0	0	524	19	0	0	
2	0	0	0	0	0	0	508	19	0	0	
3	0	0	0	0	0	0	526	19	0	0	
4	0	0	0	0	0	0	508	19	0	0	
5	0	0	0	0	0	0	521	19	0	0	
6	0	0	0	0	0	0	504	18	0	0	
7	0	0	0	0	0	0	515	19	0	0	
8	0	0	0	0	0	0	496	17	0	0	
9	0	0	0	0	0	0	510	19	0	0	
10	0	0	0	0	0	0	494	17	0	0	
11	0	0	0	0	0	0	508	11	0	0	
12	0	0	0	0	0	0	489	17	0	0	
13	0	0	0	0	0	0	503	7	0	0	
14	0	0	0	0	0	0	480	17	0	0	
15	0	0	0	0	0	0	515	19	0	0	
0	0	0	0	0	0	0	572	22	0	0	
1	0	0	0	0	0	0	622	24	0	0	
2	0	0	0	0	0	0	539	19	0	0	
3	0	0	0	0	0	0	520	19	0	0	
4	0	0	0	0	0	0	503	18	0	0	
5	0	0	0	0	0	0	504	18	0	0	
6	0	0	0	0	0	0	489	17	0	0	
7	0	0	0	0	0	0	505	18	0	0	
8	0	0	0	0	0	0	491	17	0	0	
9	0	0	0	0	0	0	505	18	0	0	
10	0	0	0	0	0	0	487	17	0	0	
11	0	0	0	0	0	0	503	18	0	0	
12	0	0	0	0	0	0	486	17	0	0	
13	0	0	0	0	0	0	502	18	0	0	
14	0	0	0	0	0	0	488	17	0	0	
15	0	0	0	0	0	0	504	18	0	0	
0	0	0	0	0	0	0	492	17	0	0	
1	0	0	0	0	0	0	510	19	0	0	
2	0	0	0	0	0	0	494	17	0	0	
3	0	0	0	0	0	0	514	19	0	0	
4	0	0	0	0	0	0	504	18	0	0	
5	0	0	0	0	0	0	521	19	0	0	
6	0	0	0	0	0	0	510	7	0	0	
7	0	0	0	0	0	0	529	19	0	0	
8	0	0	0	0	0	0	519	19	0	0	
9	0	0	0	0	0	0	539	19	0	0	
10	0	0	0	0	0	0	525	19	0	0	
11	0	0	0	0	0	0	543	7	0	0	
12	0	0	0	0	0	0	531	19	0	0	
13	0	0	0	0	0	0	548	20	0	0	
14	0	0	0	0	0	0	529	19	0	0	
15	0	0	0	0	0	0	545	20	0	0	
0	0	0	0	0	0	0	531	19	0	0	
1	0	0	0	0	0	0	543	19	0	0	
2	0	0	0	0	0	0	526	19	0	0	
3	0	0	0	0	0	0	541	19	0	0	
4	0	0	0	0	0	0	524	19	0	0	
5	0	0	0	0	0	0	540	19	0	0	
6	0	0	0	0	0	0	523	19	0	0	
7	0	0	0	0	0	0	537	19	0	0	
8	0	0	0	0	0	0	521	19	0	0	
9	0	0	0	0	0	0	537	19	0	0	
10	0	0	0	0	0	0	519	19	0	0	
11	0	0	0	0	0	0	537	19	0	0	
12	0	0	0	0	0	0	521	19	0	0	
13	0	0	0	0	0	0	539	19	0	0	
14	0	0	0	0	0	0	523	19	0	0	
15	0	0	0	0	0	0	540	19	0	0	
0	0	0	0	0	0	0	524	19	0	0	
1	0	0	0	0	0	0	542	19	0	0	
2	0	0	0	0	0	0	525	19	0	0	
3	0	0	0	0	0	0	540	19	0	0	
4	0	0	0	0	0	0	524	19	0	0	
5	0	0	0	0	0	0	540	19	0	0	
6	0	0	0	0	0	0	521	19	0	0	
7	0	0	0	0	0	0	536	19	0	0	
8	0	0	0	0	0	0	519	19	0	0	
9	0	0	0	0	0	0	536	19	0	0	
10	0	0	0	0	0	0	519	19	0	0	
11	0	0	0	0	0	0	534	19	0	0	
12	0	0	0	0	0	0	517	19	0	0	
13	0	0	0	0	0	0	534	19	0	0	
14	0	0	0	0	0	0	516	19	0	0	
15	0	0	0	0	0	0	534	19	0	0	
0	0	0	0	0	0	0	515	19	0	0	
1	0	0	0	0	0	0	534	19	0	0	
2	0	0	0	0	0	0	515	19	0	0	
3	0	0	0	0	0	0	531	19	0	0	
4	0	0	0	0	0	0	515	19	0	0	
5	0	0	0	0	0	0	531	19	0	0	
6	0	0	0	0	0	0	515	19	0	0	
7	0	0	0	0	0	0	539	19	0	0	
8	0	0	0	0	0	0	519	19	0	0	
9	0	0	0	0	0	0	537	19	0	0	
10	0	0	0	0	0	0	519	19	0	0	
11	0	0	0	0	0	0	536	19	0	0	
12	0	0	0	0	0	0	513	19	0	0	
13	0	0	0	0	0	0	527	19	0	0	
14	0	0	0	0	0	0	508	18	0	0	
15	0	0	0	0	0	0	524	19	0	0	
0	0	0	0	0	0	0	508	18	0	0	
1	0	0	0	0	0	0	519	19	0	0	
2	0	0	0	0	0	0	494	17	0	0	
3	0	0	0	0	0	0	515	19	0	0	
4	0	0	0	0	0	0	548	20	0	0	
5	0	0	0	0	0	0	633	25	0	0	
6	0	0	0	0	0	0	587	23	0	0	
7	0	0	0	0	0	0	536	19	0	0	
8	0	0	0	0	0	0	523	19	0	0	
9	0	0	0	0	0	0	527	19	0	0	
10	0	0	0	0	0	0	504	18	0	0	
11	0	0	0	0	0	0	524	19	0	0	
12	0	0	0	0	0	0	504	18	0	0	
13	0	0	0	0	0	0	523	19	0	0	
14	0	0	0	0	0	0	504	18	0	0	
15	0	0	0	0	0	0	524	7	0	0	
0	0	0	0	0	0	0	507	18	0	0	
1	0	0	0	0	0	0	523	19	0	0	
2	0	0	0	0	0	0	505	18	0	0	
3	0	0	0	0	0	0	524	19	0	0	
4	0	0	0	0	0	0	505	18	0	0	
5	0	0	0	0	0	0	522	19	0	0	
6	0	0	0	0	0	0	505	18	0	0	
7	0	0	0	0	0	0	524	19	0	0	
8	0	0	0	0	0	0	508	18	0	0	
9	0	0	0	0	0	0	524	19	0	0	
10	0	0	0	0	0	0	508	18	0	0	
11	0	0	0	0	0	0	528	19	0	0	
12	0	0	0	0	0	0	512	19	0	0	
13	0	0	0	0	0	0	531	19	0	0	
14	0	0	0	0	0	0	515	19	0	0	
15	0	0	0	0	0	0	534	19	0	0	
0	0	0	0	0	0	0	516	19	0	0	
1	0	0	0	0	0	0	536	19	0	0	
2	0	0	0	0	0	0	516	19	0	0	
3	0	0	0	0	0	0	532	19	0	0	
4	0	0	0	0	0	0	511	19	0	0	
5	0	0	0	0	0	0	527	19	0	0	
6	0	0	0	0	0	0	508	18	0	0	
7	0	0	0	0	0	0	524	19	0	0	
8	0	0	0	0	0	0	507	18	0	0	
9	0	0	0	0	0	0	525	19	0	0	
10	0	0	0	0	0	0	507	18	0	0	
11	0	0	0	0	0	0	526	19	0	0	
12	0	0	0	0	0	0	508	18	0	0	
13	0	0	0	0	0	0	526	19	0	0	
14	0	0	0	0	0	0	508	18	0	0	
15	0	0	0	0	0	0	526	19	0	0	
0	0	0	0	0	0	0	508	19	0	0	
1	0	0	0	0	0	0	527	19	0	0	
2	0	0	0	0	0	0	510	19	0	0	
3	0	0	0	0	0	0	527	19	0	0	
4	0	0	0	0	0	0	510	19	0	0	
5	0	0	0	0	0	0	528	19	0	0	
6	0	0	0	0	0	0	508	19	0	0	
7	0	0	0	0	0	0	527	19	0	0	
8	0	0	0	0	0	0	508	18	0	0	
9	0	0	0	0	0	0	526	19	0	0	
10	0	0	0	0	0	0	508	18	0	0	
11	0	0	0	0	0	0	526	19	0	0	
12	0	0	0	0	0	0	505	18	0	0	
13	0	0	0	0	0	0	524	7	0	0	
14	0	0	0	0	0	0	505	18	0	0	
15	0	0	0	0	0	0	524	19	0	0	
0	0	0	0	0	0	0	505	18	0	0	
1	0	0	0	0	0	0	524	19	0	0	
2	0	0	0	0	0	0	505	18	0	0	
3	0	0	0	0	0	0	524	19	0	0	
4	0	0	0	0	0	0	505	7	0	0	
5	0	0	0	0	0	0	524	19	0	0	
6	0	0	0	0	0	0	505	18	0	0	
7	0	0	0	0	0	0	524	19	0	0	
8	0	0	0	0	0	0	508	18	0	0	
9	0	0	0	0	0	0	527	19	0	0	
10	0	0	0	0	0	0	508	19	0	0	
11	0	0	0	0	0	0	531	7	0	0	
12	0	0	0	0	0	0	515	19	0	0	
13	0	0	0	0	0	0	535	19	0	0	
14	0	0	0	0	0	0	513	19	0	0	
15	0	0	0	0	0	0	531	19	0	0	
0	0	0	0	0	0	0	509	19	0	0	
1	0	0	0	0	0	0	526	19	0	0	
2	0	0	0	0	0	0	507	18	0	0	
3	0	0	0	0	0	0	527	19	0	0	
4	0	0	0	0	0	0	507	18	0	0	
5	0	0	0	0	0	0	524	19	0	0	
6	0	0	0	0	0	0	498	17	0	0	
7	0	0	0	0	0	0	519	19	0	0	
8	0	0	0	0	0	0	542	7	0	0	
9	0	0	0	0	0	0	617	24	0	0	
10	0	0	0	0	0	0	574	22	0	0	
11	0	0	0	0	0	0	529	19	0	0	
12	0	0	0	0	0	0	519	19	0	0	
13	0	0	0	0	0	0	527	19	0	0	
14	0	0	0	0	0	0	504	18	0	0	
15	0	0	0	0	0	0	524	19	0	0	
0	0	0	0	0	0	0	504	18	0	0	
1	0	0	0	0	0	0	524	19	0	0	
2	0	0	0	0	0	0	505	18	0	0	
3	0	0	0	0	0	0	524	19	0	0	
4	0	0	0	0	0	0	505	18	0	0	
5	0	0	0	0	0	0	527	7	0	0	
6	0	0	0	0	0	0	508	18	0	0	
7	0	0	0	0	0	0	527	19	0	0	
8	0	0	0	0	0	0	508	18	0	0	
9	0	0	0	0	0	0	527	19	0	0	
10	0	0	0	0	0	0	508	19	0	0	
11	0	0	0	0	0	0	530	19	0	0	
12	0	0	0	0	0	0	512	7	0	0	
13	0	0	0	0	0	0	536	19	0	0	
14	0	0	0	0	0	0	518	19	0	0	
15	0	0	0	0	0	0	537	19	0	0	
0	0	0	0	0	0	0	519	19	0	0	
1	0	0	0	0	0	0	542	19	0	0	
2	0	0	0	0	0	0	524	19	0	0	
3	0	0	0	0	0	0	547	7	0	0	
4	0	0	0	0	0	0	527	19	0	0	
5	0	0	0	0	0	0	550	20	0	0	
6	0	0	0	0	0	0	529	19	0	0	
7	0	0	0	0	0	0	550	20	0	0	
8	0	0	0	0	0	0	527	19	0	0	
9	0	0	0	0	0	0	543	19	0	0	
10	0	0	0	0	0	0	519	19	0	0	
11	0	0	0	0	0	0	539	19	0	0	
12	0	0	0	0	0	0	519	19	0	0	
13	0	0	0	0	0	0	537	19	0	0	
14	0	0	0	0	0	0	516	19	0	0	
15	0	0	0	0	0	0	537	19	0	0	
0	0	0	0	0	0	0	518	19	0	0	
1	0	0	0	0	0	0	539	19	0	0	
2	0	0	0	0	0	0	518	19	0	0	
3	0	0	0	0	0	0	539	19	0	0	
4	0	0	0	0	0	0	519	19	0	0	
5	0	0	0	0	0	0	540	19	0	0	
6	0	0	0	0	0	0	519	19	0	0	
7	0	0	0	0	0	0	540	19	0	0	
8	0	0	0	0	0	0	518	19	0	0	
9	0	0	0	0	0	0	539	19	0	0	
10	0	0	0	0	0	0	519	19	0	0	
11	0	0	0	0	0	0	540	19	0	0	
12	0	0	0	0	0	0	518	7	0	0	
13	0	0	0	0	0	0	537	19	0	0	
14	0	0	0	0	0	0	515	19	0	0	
15	0	0	0	0	0	0	536	19	0	0	
0	0	0	0	0	0	0	513	19	0	0	
1	0	0	0	0	0	0	534	19	0	0	
2	0	0	0	0	0	0	512	19	0	0	
3	0	0	0	0	0	0	534	19	0	0	
4	0	0	0	0	0	0	513	19	0	0	
5	0	0	0	0	0	0	532	19	0	0	
6	0	0	0	0	0	0	510	19	0	0	
7	0	0	0	0	0	0	530	19	0	0	
8	0	0	0	0	0	0	510	19	0	0	
9	0	0	0	0	0	0	531	19	0	0	
10	0	0	0	0	0	0	510	19	0	0	
11	0	0	0	0	0	0	531	19	0	0	
12	0	0	0	0	0	0	511	19	0	0	
13	0	0	0	0	0	0	537	19	0	0	
14	0	0	0	0	0	0	519	7	0	0	
15	0	0	0	0	0	0	536	19	0	0	
0	0	0	0	0	0	0	516	19	0	0	
1	0	0	0	0	0	0	536	7	0	0	
2	0	0	0	0	0	0	512	19	0	0	
3	0	0	0	0	0	0	532	19	0	0	
4	0	0	0	0	0	0	510	7	0	0	
5	0	0	0	0	0	0	531	19	0	0	
6	0	0	0	0	0	0	508	19	0	0	
7	0	0	0	0	0	0	527	7	0	0	
8	0	0	0	0	0	0	500	18	0	0	
9	0	0	0	0	0	0	516	19	0	0	
10	0	0	0	0	0	0	523	19	0	0	
11	0	0	0	0	0	0	615	9	0	0	
12	0	0	0	0	0	0	608	24	0	0	
13	0	0	0	0	0	0	555	20	0	0	
14	0	0	0	0	0	0	519	19	0	0	
15	0	0	0	0	0	0	536	19	0	0	
0	0	0	0	0	0	0	504	18	0	0	
1	0	0	0	0	0	0	524	19	0	0	
2	0	0	0	0	0	0	502	18	0	0	
3	0	0	0	0	0	0	524	19	0	0	
4	0	0	0	0	0	0	502	18	0	0	
5	0	0	0	0	0	0	523	19	0	0	
6	0	0	0	0	0	0	500	18	0	0	
7	0	0	0	0	0	0	524	19	0	0	
8	0	0	0	0	0	0	504	18	0	0	
9	0	0	0	0	0	0	524	19	0	0	
10	0	0	0	0	0	0	504	18	0	0	
11	0	0	0	0	0	0	527	19	0	0	
12	0	0	0	0	0	0	507	18	0	0	
13	0	0	0	0	0	0	527	19	0	0	
14	0	0	0	0	0	0	508	18	0	0	
15	0	0	0	0	0	0	531	19	0	0	
0	0	0	0	0	0	0	511	19	0	0	
1	0	0	0	0	0	0	535	19	0	0	
2	0	0	0	0	0	0	515	19	0	0	
3	0	0	0	0	0	0	540	19	0	0	
4	0	0	0	0	0	0	519	19	0	0	
5	0	0	0	0	0	0	543	19	0	0	
6	0	0	0	0	0	0	523	19	0	0	
7	0	0	0	0	0	0	545	20	0	0	
8	0	0	0	0	0	0	521	19	0	0	
9	0	0	0	0	0	0	542	19	0	0	
10	0	0	0	0	0	0	516	19	0	0	
11	0	0	0	0	0	0	536	19	0	0	
12	0	0	0	0	0	0	512	19	0	0	
13	0	0	0	0	0	0	531	19	0	0	
14	0	0	0	0	0	0	510	19	0	0	
15	0	0	0	0	0	0	531	19	0	0	
0	0	0	0	0	0	0	511	19	0	0	
1	0	0	0	0	0	0	535	19	0	0	
2	0	0	0	0	0	0	510	7	0	0	
3	0	0	0	0	0	0	531	19	0	0	
4	0	0	0	0	0	0	510	19	0	0	
5	0	0	0	0	0	0	531	19	0	0	
6	0	0	0	0	0	0	512	7	0	0	
7	0	0	0	0	0	0	534	7	0	0	
8	0	0	0	0	0	0	512	19	0	0	
9	0	0	0	0	0	0	536	19	0	0	
10	0	0	0	0	0	0	511	19	0	0	
11	0	0	0	0	0	0	534	19	0	0	
12	0	0	0	0	0	0	512	19	0	0	
13	0	0	0	0	0	0	534	19	0	0	
14	0	0	0	0	0	0	512	19	0	0	
15	0	0	0	0	0	0	532	19	0	0	
0	0	0	0	0	0	0	512	19	0	0	
1	0	0	0	0	0	0	534	19	0	0	
2	0	0	0	0	0	0	512	19	0	0	
3	0	0	0	0	0	0	536	19	0	0	
4	0	0	0	0	0	0	512	19	0	0	
5	0	0	0	0	0	0	531	19	0	0	
6	0	0	0	0	0	0	510	7	0	0	
7	0	0	0	0	0	0	534	19	0	0	
8	0	0	0	0	0	0	513	19	0	0	
9	0	0	0	0	0	0	536	19	0	0	
10	0	0	0	0	0	0	512	19	0	0	
11	0	0	0	0	0	0	535	19	0	0	
12	0	0	0	0	0	0	511	19	0	0	
13	0	0	0	0	0	0	536	19	0	0	
14	0	0	0	0	0	0	512	19	0	0	
15	0	0	0	0	0	0	536	19	0	0	
0	0	0	0	0	0	0	513	19	0	0	
1	0	0	0	0	0	0	534	19	0	0	
2	0	0	0	0	0	0	514	19	0	0	
3	0	0	0	0	0	0	539	7	0	0	
4	0	0	0	0	0	0	519	19	0	0	
5	0	0	0	0	0	0	542	7	0	0	
6	0	0	0	0	0	0	519	19	0	0	
7	0	0	0	0	0	0	539	19	0	0	
8	0	0	0	0	0	0	510	19	0	0	
9	0	0	0	0	0	0	531	19	0	0	
10	0	0	0	0	0	0	511	19	0	0	
11	0	0	0	0	0	0	531	19	0	0	
12	0	0	0	0	0	0	505	18	0	0	
13	0	0	0	0	0	0	521	19	0	0	
14	0	0	0	0	0	0	496	17	0	0	
15	0	0	0	0	0	0	551	20	0	0	
0	0	0	0	0	0	0	604	24	0	0	
1	0	0	0	0	0	0	627	9	0	0	
2	0	0	0	0	0	0	527	19	0	0	
3	0	0	0	0	0	0	543	19	0	0	
4	0	0	0	0	0	0	512	19	0	0	
5	0	0	0	0	0	0	526	19	0	0	
6	0	0	0	0	0	0	502	18	0	0	
7	0	0	0	0	0	0	526	19	0	0	
8	0	0	0	0	0	0	504	18	0	0	
9	0	0	0	0	0	0	527	19	0	0	
10	0	0	0	0	0	0	504	18	0	0	
11	0	0	0	0	0	0	531	19	0	0	
12	0	0	0	0	0	0	508	18	0	0	
13	0	0	0	0	0	0	529	19	0	0	
14	0	0	0	0	0	0	507	18	0	0	
15	0	0	0	0	0	0	531	19	0	0	
0	0	0	0	0	0	0	505	18	0	0	
1	0	0	0	0	0	0	528	19	0	0	
2	0	0	0	0	0	0	509	19	0	0	
3	0	0	0	0	0	0	534	19	0	0	
4	0	0	0	0	0	0	512	19	0	0	
5	0	0	0	0	0	0	536	19	0	0	
6	0	0	0	0	0	0	512	19	0	0	
7	0	0	0	0	0	0	537	19	0	0	
8	0	0	0	0	0	0	513	19	0	0	
9	0	0	0	0	0	0	542	19	0	0	
10	0	0	0	0	0	0	519	19	0	0	
11	0	0	0	0	0	0	542	19	0	0	
12	0	0	0	0	0	0	519	19	0	0	
13	0	0	0	0	0	0	545	20	0	0	
14	0	0	0	0	0	0	519	19	0	0	
15	0	0	0	0	0	0	541	19	0	0	
0	0	0	0	0	0	0	514	19	0	0	
1	0	0	0	0	0	0	536	19	0	0	
2	0	0	0	0	0	0	512	19	0	0	
3	0	0	0	0	0	0	536	19	0	0	
4	0	0	0	0	0	0	509	19	0	0	
5	0	0	0	0	0	0	532	19	0	0	
6	0	0	0	0	0	0	510	19	0	0	
7	0	0	0	0	0	0	533	19	0	0	
8	0	0	0	0	0	0	510	19	0	0	
9	0	0	0	0	0	0	532	7	0	0	
10	0	0	0	0	0	0	509	19	0	0	
11	0	0	0	0	0	0	531	19	0	0	
12	0	0	0	0	0	0	510	19	0	0	
13	0	0	0	0	0	0	534	7	0	0	
14	0	0	0	0	0	0	510	19	0	0	
15	0	0	0	0	0	0	534	19	0	0	
0	0	0	0	0	0	0	512	19	0	0	
1	0	0	0	0	0	0	536	19	0	0	
2	0	0	0	0	0	0	511	19	0	0	
3	0	0	0	0	0	0	533	19	0	0	
4	0	0	0	0	0	0	508	18	0	0	
5	0	0	0	0	0	0	531	19	0	0	
6	0	0	0	0	0	0	508	18	0	0	
7	0	0	0	0	0	0	531	19	0	0	
8	0	0	0	0	0	0	508	18	0	0	
9	0	0	0	0	0	0	531	19	0	0	
10	0	0	0	0	0	0	508	18	0	0	
11	0	0	0	0	0	0	531	12	0	0	
12	0	0	0	0	0	0	510	19	0	0	
13	0	0	0	0	0	0	534	19	0	0	
14	0	0	0	0	0	0	508	18	0	0	
15	0	0	0	0	0	0	534	19	0	0	
0	0	0	0	0	0	0	511	19	0	0	
1	0	0	0	0	0	0	536	19	0	0	
2	0	0	0	0	0	0	511	19	0	0	
3	0	0	0	0	0	0	536	19	0	0	
4	0	0	0	0	0	0	512	19	0	0	
5	0	0	0	0	0	0	537	19	0	0	
6	0	0	0	0	0	0	511	19	0	0	
7	0	0	0	0	0	0	537	19	0	0	
8	0	0	0	0	0	0	518	19	0	0	
9	0	0	0	0	0	0	543	19	0	0	
10	0	0	0	0	0	0	519	19	0	0	
11	0	0	0	0	0	0	542	19	0	0	
12	0	0	0	0	0	0	515	19	0	0	
13	0	0	0	0	0	0	536	19	0	0	
14	0	0	0	0	0	0	508	18	0	0	
15	0	0	0	0	0	0	532	19	0	0	
0	0	0	0	0	0	0	507	18	0	0	
1	0	0	0	0	0	0	531	19	0	0	
2	0	0	0	0	0	0	504	18	0	0	
3	0	0	0	0	0	0	521	19	0	0	
4	0	0	0	0	0	0	501	18	0	0	
5	0	0	0	0	0	0	575	22	0	0	
6	0	0	0	0	0	0	615	24	0	0	
7	0	0	0	0	0	0	608	24	0	0	
8	0	0	0	0	0	0	519	19	0	0	
9	0	0	0	0	0	0	547	20	0	0	
10	0	0	0	0	0	0	509	19	0	0	
11	0	0	0	0	0	0	529	19	0	0	
12	0	0	0	0	0	0	504	7	0	0	
13	0	0	0	0	0	0	527	19	0	0	
14	0	0	0	0	0	0	504	18	0	0	
15	0	0	0	0	0	0	527	19	0	0	
0	0	0	0	0	0	0	499	18	0	0	
1	0	0	0	0	0	0	527	19	0	0	
2	0	0	0	0	0	0	504	18	0	0	
3	0	0	0	0	0	0	525	19	0	0	
4	0	0	0	0	0	0	500	18	0	0	
5	0	0	0	0	0	0	527	19	0	0	
6	0	0	0	0	0	0	502	18	0	0	
7	0	0	0	0	0	0	526	19	0	0	
8	0	0	0	0	0	0	503	18	0	0	
9	0	0	0	0	0	0	527	19	0	0	
10	0	0	0	0	0	0	508	18	0	0	
11	0	0	0	0	0	0	535	19	0	0	
12	0	0	0	0	0	0	510	19	0	0	
13	0	0	0	0	0	0	537	19	0	0	
14	0	0	0	0	0	0	512	19	0	0	
15	0	0	0	0	0	0	539	19	0	0	
0	0	0	0	0	0	0	515	19	0	0	
1	0	0	0	0	0	0	543	19	0	0	
2	0	0	0	0	0	0	519	7	0	0	
3	0	0	0	0	0	0	542	7	0	0	
4	0	0	0	0	0	0	514	19	0	0	
5	0	0	0	0	0	0	537	19	0	0	
6	0	0	0	0	0	0	508	19	0	0	
7	0	0	0	0	0	0	531	19	0	0	
8	0	0	0	0	0	0	505	7	0	0	
9	0	0	0	0	0	0	529	19	0	0	
10	0	0	0	0	0	0	505	18	0	0	
11	0	0	0	0	0	0	531	19	0	0	
12	0	0	0	0	0	0	508	18	0	0	
13	0	0	0	0	0	0	536	19	0	0	
14	0	0	0	0	0	0	510	19	0	0	
15	0	0	0	0	0	0	536	19	0	0	
0	0	0	0	0	0	0	510	19	0	0	
1	0	0	0	0	0	0	536	19	0	0	
2	0	0	0	0	0	0	512	19	0	0	
3	0	0	0	0	0	0	536	19	0	0	
4	0	0	0	0	0	0	511	19	0	0	
5	0	0	0	0	0	0	537	19	0	0	
6	0	0	0	0	0	0	511	19	0	0	
7	0	0	0	0	0	0	536	19	0	0	
8	0	0	0	0	0	0	511	19	0	0	
9	0	0	0	0	0	0	536	19	0	0	
10	0	0	0	0	0	0	509	19	0	0	
11	0	0	0	0	0	0	536	19	0	0	
12	0	0	0	0	0	0	512	19	0	0	
13	0	0	0	0	0	0	537	19	0	0	
14	0	0	0	0	0	0	511	19	0	0	
15	0	0	0	0	0	0	536	19	0	0	
0	0	0	0	0	0	0	510	19	0	0	
1	0	0	0	0	0	0	536	19	0	0	
2	0	0	0	0	0	0	513	19	0	0	
3	0	0	0	0	0	0	537	19	0	0	
4	0	0	0	0	0	0	513	19	0	0	
5	0	0	0	0	0	0	539	19	0	0	
6	0	0	0	0	0	0	511	19	0	0	
7	0	0	0	0	0	0	537	19	0	0	
8	0	0	0	0	0	0	512	19	0	0	
9	0	0	0	0	0	0	539	19	0	0	
10	0	0	0	0	0	0	513	19	0	0	
11	0	0	0	0	0	0	539	19	0	0	
12	0	0	0	0	0	0	513	19	0	0	
13	0	0	0	0	0	0	537	19	0	0	
14	0	0	0	0	0	0	513	19	0	0	
15	0	0	0	0	0	0	543	7	0	0	
0	0	0	0	0	0	0	519	19	0	0	
1	0	0	0	0	0	0	543	19	0	0	
2	0	0	0	0	0	0	518	19	0	0	
3	0	0	0	0	0	0	540	19	0	0	
4	0	0	0	0	0	0	512	19	0	0	
5	0	0	0	0	0	0	537	19	0	0	
6	0	0	0	0	0	0	511	19	0	0	
7	0	0	0	0	0	0	537	19	0	0	
8	0	0	0	0	0	0	512	19	0	0	
9	0	0	0	0	0	0	536	7	0	0	
10	0	0	0	0	0	0	504	18	0	0	
11	0	0	0	0	0	0	534	19	0	0	
12	0	0	0	0	0	0	555	20	0	0	
13	0	0	0	0	0	0	650	25	0	0	
14	0	0	0	0	0	0	608	24	0	0	
15	0	0	0	0	0	0	559	20	0	0	
0	0	0	0	0	0	0	536	19	0	0	
1	0	0	0	0	0	0	547	20	0	0	
2	0	0	0	0	0	0	513	19	0	0	
3	0	0	0	0	0	0	540	19	0	0	
4	0	0	0	0	0	0	513	19	0	0	
5	0	0	0	0	0	0	536	19	0	0	
6	0	0	0	0	0	0	510	19	0	0	
7	0	0	0	0	0	0	536	19	0	0	
8	0	0	0	0	0	0	510	19	0	0	
9	0	0	0	0	0	0	536	19	0	0	
10	0	0	0	0	0	0	508	19	0	0	
11	0	0	0	0	0	0	534	19	0	0	
12	0	0	0	0	0	0	508	18	0	0	
13	0	0	0	0	0	0	534	19	0	0	
14	0	0	0	0	0	0	508	19	0	0	
15	0	0	0	0	0	0	536	19	0	0	
0	0	0	0	0	0	0	509	19	0	0	
1	0	0	0	0	0	0	536	19	0	0	
2	0	0	0	0	0	0	510	19	0	0	
3	0	0	0	0	0	0	537	19	0	0	
4	0	0	0	0	0	0	515	19	0	0	
5	0	0	0	0	0	0	542	19	0	0	
6	0	0	0	0	0	0	519	19	0	0	
7	0	0	0	0	0	0	543	20	0	0	
8	0	0	0	0	0	0	519	19	0	0	
9	0	0	0	0	0	0	547	20	0	0	
10	0	0	0	0	0	0	520	19	0	0	
11	0	0	0	0	0	0	543	20	0	0	
12	0	0	0	0	0	0	515	19	0	0	
13	0	0	0	0	0	0	540	19	0	0	
14	0	0	0	0	0	0	510	19	0	0	
15	0	0	0	0	0	0	534	19	0	0	
0	0	0	0	0	0	0	505	18	0	0	
1	0	0	0	0	0	0	531	19	0	0	
2	0	0	0	0	0	0	507	18	0	0	
3	0	0	0	0	0	0	531	19	0	0	
4	0	0	0	0	0	0	505	18	0	0	
5	0	0	0	0	0	0	534	19	0	0	
6	0	0	0	0	0	0	510	19	0	0	
7	0	0	0	0	0	0	536	19	0	0	
8	0	0	0	0	0	0	511	7	0	0	
9	0	0	0	0	0	0	540	19	0	0	
10	0	0	0	0	0	0	512	19	0	0	
11	0	0	0	0	0	0	536	19	0	0	
12	0	0	0	0	0	0	511	19	0	0	
13	0	0	0	0	0	0	540	19	0	0	
14	0	0	0	0	0	0	513	19	0	0	
15	0	0	0	0	0	0	539	19	0	0	
0	0	0	0	0	0	0	511	19	0	0	
1	0	0	0	0	0	0	536	19	0	0	
2	0	0	0	0	0	0	510	19	0	0	
3	0	0	0	0	0	0	536	19	0	0	
4	0	0	0	0	0	0	510	19	0	0	
5	0	0	0	0	0	0	536	19	0	0	
6	0	0	0	0	0	0	508	7	0	0	
7	0	0	0	0	0	0	535	19	0	0	
8	0	0	0	0	0	0	508	18	0	0	
9	0	0	0	0	0	0	533	19	0	0	
10	0	0	0	0	0	0	508	18	0	0	
11	0	0	0	0	0	0	536	19	0	0	
12	0	0	0	0	0	0	508	19	0	0	
13	0	0	0	0	0	0	532	19	0	0	
14	0	0	0	0	0	0	507	18	0	0	
15	0	0	0	0	0	0	531	19	0	0	
0	0	0	0	0	0	0	505	18	0	0	
1	0	0	0	0	0	0	532	19	0	0	
2	0	0	0	0	0	0	505	18	0	0	
3	0	0	0	0	0	0	535	19	0	0	
4	0	0	0	0	0	0	508	19	0	0	
5	0	0	0	0	0	0	539	19	0	0	
6	0	0	0	0	0	0	513	19	0	0	
7	0	0	0	0	0	0	540	19	0	0	
8	0	0	0	0	0	0	511	19	0	0	
9	0	0	0	0	0	0	535	19	0	0	
10	0	0	0	0	0	0	508	18	0	0	
11	0	0	0	0	0	0	531	19	0	0	
12	0	0	0	0	0	0	504	18	0	0	
13	0	0	0	0	0	0	531	19	0	0	
14	0	0	0	0	0	0	504	18	0	0	
15	0	0	0	0	0	0	529	19	0	0	
0	0	0	0	0	0	0	496	17	0	0	
1	0	0	0	0	0	0	519	19	0	0	
2	0	0	0	0	0	0	539	19	0	0	
3	0	0	0	0	0	0	634	15	0	0	
4	0	0	0	0	0	0	590	23	0	0	
5	0	0	0	0	0	0	543	19	0	0	
6	0	0	0	0	0	0	518	19	0	0	
7	0	0	0	0	0	0	531	19	0	0	
8	0	0	0	0	0	0	499	17	0	0	
9	0	0	0	0	0	0	526	7	0	0	
10	0	0	0	0	0	0	498	17	0	0	
11	0	0	0	0	0	0	526	19	0	0	
12	0	0	0	0	0	0	499	18	0	0	
13	0	0	0	0	0	0	527	19	0	0	
14	0	0	0	0	0	0	500	18	0	0	
15	0	0	0	0	0	0	529	19	0	0	
0	0	0	0	0	0	0	504	7	0	0	
1	0	0	0	0	0	0	531	7	0	0	
2	0	0	0	0	0	0	504	18	0	0	
3	0	0	0	0	0	0	531	19	0	0	
4	0	0	0	0	0	0	504	18	0	0	
5	0	0	0	0	0	0	531	19	0	0	
6	0	0	0	0	0	0	505	18	0	0	
7	0	0	0	0	0	0	535	19	0	0	
8	0	0	0	0	0	0	508	18	0	0	
9	0	0	0	0	0	0	536	19	0	0	
10	0	0	0	0	0	0	511	19	0	0	
11	0	0	0	0	0	0	540	19	0	0	
12	0	0	0	0	0	0	514	19	0	0	
13	0	0	0	0	0	0	542	19	0	0	
14	0	0	0	0	0	0	515	19	0	0	
15	0	0	0	0	0	0	543	19	0	0	
0	0	0	0	0	0	0	515	19	0	0	
1	0	0	0	0	0	0	540	7	0	0	
2	0	0	0	0	0	0	510	19	0	0	
3	0	0	0	0	0	0	536	19	0	0	
4	0	0	0	0	0	0	504	18	0	0	
5	0	0	0	0	0	0	531	19	0	0	
