# OpenSignals Text File Format. Version 1
# {"20:15:05:29:22:23": {"position": 0, "device": "bitalino", "device name": "20:15:05:29:22:23", "device connection": "BTH20:15:05:29:22:23", "sampling rate": 100, "resolution": [4, 1, 1, 1, 1, 10, 10, 10, 10, 6, 6], "firmware version": 771, "comments": "", "keywords": "", "mode": 0, "sync interval": 2, "date": "2021-3-6", "time": "17:8:16.664", "channels": [1, 2, 3, 4, 5, 6], "sensor": ["RAW", "RAW", "ECGBIT", "RAW", "RAW", "RAW"], "label": ["A1", "A2", "A3", "A4", "A5", "A6"], "column": ["nSeq", "I1", "I2", "I3", "I4", "A1", "A2", "A3", "A4", "A5", "A6"], "special": [{}, {}, {}, {}, {}, {}], "digital IO": [0, 0, 0, 0, 1, 1, 1, 1], "convertedValues": 0}}
# EndOfHeader
0	0	0	0	0	0	0	339	3	0	0	
1	0	0	0	0	0	0	332	3	0	0	
2	0	0	0	0	0	0	237	7	0	0	
3	0	0	0	0	0	0	164	0	0	0	
4	0	0	0	0	0	0	16	0	0	0	
5	0	0	0	0	0	0	9	0	0	0	
6	0	0	0	0	0	0	0	0	0	0	
7	0	0	0	0	0	0	0	0	0	0	
8	0	0	0	0	0	0	28	0	0	0	
9	0	0	0	0	0	0	110	0	0	0	
10	0	0	0	0	0	0	111	2	0	0	
11	0	0	0	0	0	0	207	1	0	0	
12	0	0	0	0	0	0	211	1	0	0	
13	0	0	0	0	0	0	285	3	0	0	
14	0	0	0	0	0	0	211	1	0	0	
15	0	0	0	0	0	0	115	0	0	0	
0	0	0	0	0	0	0	0	0	0	0	
1	0	0	0	0	0	0	0	0	0	0	
2	0	0	0	0	0	0	0	0	0	0	
3	0	0	0	0	0	0	0	0	0	0	
4	0	0	0	0	0	0	0	0	0	0	
5	0	0	0	0	0	0	0	0	0	0	
6	0	0	0	0	0	0	0	0	0	0	
7	0	0	0	0	0	0	0	0	0	0	
8	0	0	0	0	0	0	0	0	0	0	
9	0	0	0	0	0	0	0	0	0	0	
10	0	0	0	0	0	0	0	0	0	0	
11	0	0	0	0	0	0	0	0	0	0	
12	0	0	0	0	0	0	0	0	0	0	
13	0	0	0	0	0	0	0	0	0	0	
14	0	0	0	0	0	0	0	0	0	0	
15	0	0	0	0	0	0	0	0	0	0	
0	0	0	0	0	0	0	0	0	0	0	
1	0	0	0	0	0	0	0	0	0	0	
2	0	0	0	0	0	0	0	0	0	0	
3	0	0	0	0	0	0	0	0	0	0	
4	0	0	0	0	0	0	0	0	0	0	
5	0	0	0	0	0	0	0	0	0	0	
6	0	0	0	0	0	0	0	0	0	0	
7	0	0	0	0	0	0	0	0	0	0	
8	0	0	0	0	0	0	0	0	0	0	
9	0	0	0	0	0	0	0	0	0	0	
10	0	0	0	0	0	0	0	0	0	0	
11	0	0	0	0	0	0	0	0	0	0	
12	0	0	0	0	0	0	0	0	0	0	
13	0	0	0	0	0	0	83	0	0	0	
14	0	0	0	0	0	0	5	0	0	0	
15	0	0	0	0	0	0	8	0	0	0	
0	0	0	0	0	0	0	0	0	0	0	
1	0	0	0	0	0	0	0	0	0	0	
2	0	0	0	0	0	0	0	0	0	0	
3	0	0	0	0	0	0	0	0	0	0	
4	0	0	0	0	0	0	0	0	0	0	
5	0	0	0	0	0	0	0	0	0	0	
6	0	0	0	0	0	0	0	0	0	0	
7	0	0	0	0	0	0	0	0	0	0	
8	0	0	0	0	0	0	0	0	0	0	
9	0	0	0	0	0	0	0	0	0	0	
10	0	0	0	0	0	0	0	0	0	0	
11	0	0	0	0	0	0	39	0	0	0	
12	0	0	0	0	0	0	321	3	0	0	
13	0	0	0	0	0	0	92	0	0	0	
14	0	0	0	0	0	0	27	0	0	0	
15	0	0	0	0	0	0	207	1	0	0	
0	0	0	0	0	0	0	343	3	0	0	
1	0	0	0	0	0	0	335	11	0	0	
2	0	0	0	0	0	0	283	3	0	0	
3	0	0	0	0	0	0	318	3	0	0	
4	0	0	0	0	0	0	308	3	0	0	
5	0	0	0	0	0	0	334	11	0	0	
6	0	0	0	0	0	0	319	9	0	0	
7	0	0	0	0	0	0	368	12	0	0	
8	0	0	0	0	0	0	670	11	0	0	
9	0	0	0	0	0	0	964	48	0	0	
10	0	0	0	0	0	0	964	19	0	0	
11	0	0	0	0	0	0	964	19	0	0	
12	0	0	0	0	0	0	964	48	0	0	
13	0	0	0	0	0	0	964	19	0	0	
14	0	0	0	0	0	0	896	17	0	0	
15	0	0	0	0	0	0	916	44	0	0	
0	0	0	0	0	0	0	964	19	0	0	
1	0	0	0	0	0	0	964	19	0	0	
2	0	0	0	0	0	0	964	48	0	0	
3	0	0	0	0	0	0	964	19	0	0	
4	0	0	0	0	0	0	964	19	0	0	
5	0	0	0	0	0	0	964	19	0	0	
6	0	0	0	0	0	0	963	48	0	0	
7	0	0	0	0	0	0	963	48	0	0	
8	0	0	0	0	0	0	963	19	0	0	
9	0	0	0	0	0	0	963	48	0	0	
10	0	0	0	0	0	0	963	19	0	0	
11	0	0	0	0	0	0	964	19	0	0	
12	0	0	0	0	0	0	964	19	0	0	
13	0	0	0	0	0	0	964	48	0	0	
14	0	0	0	0	0	0	964	48	0	0	
15	0	0	0	0	0	0	964	19	0	0	
0	0	0	0	0	0	0	964	19	0	0	
1	0	0	0	0	0	0	964	19	0	0	
2	0	0	0	0	0	0	963	19	0	0	
3	0	0	0	0	0	0	604	9	0	0	
4	0	0	0	0	0	0	543	7	0	0	
5	0	0	0	0	0	0	531	19	0	0	
6	0	0	0	0	0	0	475	7	0	0	
7	0	0	0	0	0	0	492	7	0	0	
8	0	0	0	0	0	0	416	14	0	0	
9	0	0	0	0	0	0	346	3	0	0	
10	0	0	0	0	0	0	241	2	0	0	
11	0	0	0	0	0	0	222	1	0	0	
12	0	0	0	0	0	0	52	0	0	0	
13	0	0	0	0	0	0	0	0	0	0	
14	0	0	0	0	0	0	0	0	0	0	
15	0	0	0	0	0	0	0	0	0	0	
0	0	0	0	0	0	0	0	0	0	0	
1	0	0	0	0	0	0	0	0	0	0	
2	0	0	0	0	0	0	0	0	0	0	
3	0	0	0	0	0	0	0	0	0	0	
4	0	0	0	0	0	0	0	0	0	0	
5	0	0	0	0	0	0	0	0	0	0	
6	0	0	0	0	0	0	0	0	0	0	
7	0	0	0	0	0	0	0	0	0	0	
8	0	0	0	0	0	0	0	0	0	0	
9	0	0	0	0	0	0	0	0	0	0	
10	0	0	0	0	0	0	0	0	0	0	
11	0	0	0	0	0	0	0	0	0	0	
12	0	0	0	0	0	0	0	0	0	0	
13	0	0	0	0	0	0	0	0	0	0	
14	0	0	0	0	0	0	0	0	0	0	
15	0	0	0	0	0	0	0	0	0	0	
0	0	0	0	0	0	0	0	0	0	0	
1	0	0	0	0	0	0	0	0	0	0	
2	0	0	0	0	0	0	0	0	0	0	
3	0	0	0	0	0	0	0	0	0	0	
4	0	0	0	0	0	0	0	0	0	0	
5	0	0	0	0	0	0	0	0	0	0	
6	0	0	0	0	0	0	0	0	0	0	
7	0	0	0	0	0	0	0	0	0	0	
8	0	0	0	0	0	0	0	0	0	0	
9	0	0	0	0	0	0	0	0	0	0	
10	0	0	0	0	0	0	0	0	0	0	
11	0	0	0	0	0	0	0	0	0	0	
12	0	0	0	0	0	0	0	0	0	0	
13	0	0	0	0	0	0	0	0	0	0	
14	0	0	0	0	0	0	216	1	0	0	
15	0	0	0	0	0	0	508	18	0	0	
0	0	0	0	0	0	0	483	17	0	0	
1	0	0	0	0	0	0	527	7	0	0	
2	0	0	0	0	0	0	460	15	0	0	
3	0	0	0	0	0	0	373	4	0	0	
4	0	0	0	0	0	0	231	1	0	0	
5	0	0	0	0	0	0	148	0	0	0	
6	0	0	0	0	0	0	0	0	0	0	
7	0	0	0	0	0	0	0	0	0	0	
8	0	0	0	0	0	0	0	0	0	0	
9	0	0	0	0	0	0	0	0	0	0	
10	0	0	0	0	0	0	0	0	0	0	
11	0	0	0	0	0	0	0	0	0	0	
12	0	0	0	0	0	0	0	0	0	0	
13	0	0	0	0	0	0	0	0	0	0	
14	0	0	0	0	0	0	0	0	0	0	
15	0	0	0	0	0	0	0	0	0	0	
0	0	0	0	0	0	0	0	0	0	0	
1	0	0	0	0	0	0	0	0	0	0	
2	0	0	0	0	0	0	0	0	0	0	
3	0	0	0	0	0	0	0	0	0	0	
4	0	0	0	0	0	0	0	0	0	0	
5	0	0	0	0	0	0	0	0	0	0	
6	0	0	0	0	0	0	0	0	0	0	
7	0	0	0	0	0	0	0	0	0	0	
8	0	0	0	0	0	0	0	0	0	0	
9	0	0	0	0	0	0	0	0	0	0	
10	0	0	0	0	0	0	0	0	0	0	
11	0	0	0	0	0	0	0	0	0	0	
12	0	0	0	0	0	0	0	0	0	0	
13	0	0	0	0	0	0	0	0	0	0	
14	0	0	0	0	0	0	0	0	0	0	
15	0	0	0	0	0	0	0	0	0	0	
0	0	0	0	0	0	0	0	0	0	0	
1	0	0	0	0	0	0	57	0	0	0	
2	0	0	0	0	0	0	451	6	0	0	
3	0	0	0	0	0	0	480	16	0	0	
4	0	0	0	0	0	0	657	10	0	0	
5	0	0	0	0	0	0	696	12	0	0	
6	0	0	0	0	0	0	611	9	0	0	
7	0	0	0	0	0	0	510	18	0	0	
8	0	0	0	0	0	0	332	3	0	0	
9	0	0	0	0	0	0	167	3	0	0	
10	0	0	0	0	0	0	0	0	0	0	
11	0	0	0	0	0	0	0	0	0	0	
12	0	0	0	0	0	0	0	0	0	0	
13	0	0	0	0	0	0	0	0	0	0	
14	0	0	0	0	0	0	0	0	0	0	
15	0	0	0	0	0	0	0	0	0	0	
0	0	0	0	0	0	0	0	0	0	0	
1	0	0	0	0	0	0	0	0	0	0	
2	0	0	0	0	0	0	0	0	0	0	
3	0	0	0	0	0	0	80	1	0	0	
4	0	0	0	0	0	0	871	16	0	0	
5	0	0	0	0	0	0	859	15	0	0	
6	0	0	0	0	0	0	951	47	0	0	
7	0	0	0	0	0	0	963	48	0	0	
8	0	0	0	0	0	0	964	48	0	0	
9	0	0	0	0	0	0	964	19	0	0	
10	0	0	0	0	0	0	963	19	0	0	
11	0	0	0	0	0	0	839	38	0	0	
12	0	0	0	0	0	0	704	12	0	0	
13	0	0	0	0	0	0	688	11	0	0	
14	0	0	0	0	0	0	596	23	0	0	
15	0	0	0	0	0	0	581	22	0	0	
0	0	0	0	0	0	0	500	7	0	0	
1	0	0	0	0	0	0	460	15	0	0	
2	0	0	0	0	0	0	443	6	0	0	
3	0	0	0	0	0	0	545	7	0	0	
4	0	0	0	0	0	0	632	9	0	0	
5	0	0	0	0	0	0	809	35	0	0	
6	0	0	0	0	0	0	963	19	0	0	
7	0	0	0	0	0	0	963	48	0	0	
8	0	0	0	0	0	0	963	48	0	0	
9	0	0	0	0	0	0	964	19	0	0	
10	0	0	0	0	0	0	964	48	0	0	
11	0	0	0	0	0	0	964	19	0	0	
12	0	0	0	0	0	0	964	19	0	0	
13	0	0	0	0	0	0	964	19	0	0	
14	0	0	0	0	0	0	964	48	0	0	
15	0	0	0	0	0	0	608	9	0	0	
0	0	0	0	0	0	0	168	1	0	0	
1	0	0	0	0	0	0	71	0	0	0	
2	0	0	0	0	0	0	0	0	0	0	
3	0	0	0	0	0	0	0	0	0	0	
4	0	0	0	0	0	0	0	0	0	0	
5	0	0	0	0	0	0	0	0	0	0	
6	0	0	0	0	0	0	0	0	0	0	
7	0	0	0	0	0	0	0	0	0	0	
8	0	0	0	0	0	0	0	0	0	0	
9	0	0	0	0	0	0	0	0	0	0	
10	0	0	0	0	0	0	0	0	0	0	
11	0	0	0	0	0	0	0	0	0	0	
12	0	0	0	0	0	0	0	0	0	0	
13	0	0	0	0	0	0	0	0	0	0	
14	0	0	0	0	0	0	0	0	0	0	
15	0	0	0	0	0	0	0	0	0	0	
0	0	0	0	0	0	0	0	0	0	0	
1	0	0	0	0	0	0	0	0	0	0	
2	0	0	0	0	0	0	0	0	0	0	
3	0	0	0	0	0	0	0	0	0	0	
4	0	0	0	0	0	0	0	0	0	0	
5	0	0	0	0	0	0	0	0	0	0	
6	0	0	0	0	0	0	0	0	0	0	
7	0	0	0	0	0	0	0	0	0	0	
8	0	0	0	0	0	0	0	0	0	0	
9	0	0	0	0	0	0	0	0	0	0	
10	0	0	0	0	0	0	0	0	0	0	
11	0	0	0	0	0	0	0	0	0	0	
12	0	0	0	0	0	0	732	12	0	0	
13	0	0	0	0	0	0	963	48	0	0	
14	0	0	0	0	0	0	963	19	0	0	
15	0	0	0	0	0	0	963	48	0	0	
0	0	0	0	0	0	0	963	19	0	0	
1	0	0	0	0	0	0	963	19	0	0	
2	0	0	0	0	0	0	963	19	0	0	
3	0	0	0	0	0	0	963	48	0	0	
4	0	0	0	0	0	0	963	48	0	0	
5	0	0	0	0	0	0	963	19	0	0	
6	0	0	0	0	0	0	963	19	0	0	
7	0	0	0	0	0	0	963	19	0	0	
8	0	0	0	0	0	0	963	19	0	0	
9	0	0	0	0	0	0	964	19	0	0	
10	0	0	0	0	0	0	964	48	0	0	
11	0	0	0	0	0	0	964	19	0	0	
12	0	0	0	0	0	0	0	0	0	0	
13	0	0	0	0	0	0	0	0	0	0	
14	0	0	0	0	0	0	0	0	0	0	
15	0	0	0	0	0	0	0	0	0	0	
0	0	0	0	0	0	0	0	0	0	0	
1	0	0	0	0	0	0	0	0	0	0	
2	0	0	0	0	0	0	0	0	0	0	
3	0	0	0	0	0	0	0	0	0	0	
4	0	0	0	0	0	0	0	0	0	0	
5	0	0	0	0	0	0	0	0	0	0	
6	0	0	0	0	0	0	0	0	0	0	
7	0	0	0	0	0	0	0	0	0	0	
8	0	0	0	0	0	0	0	0	0	0	
9	0	0	0	0	0	0	0	0	0	0	
10	0	0	0	0	0	0	0	0	0	0	
11	0	0	0	0	0	0	0	0	0	0	
12	0	0	0	0	0	0	0	0	0	0	
13	0	0	0	0	0	0	0	0	0	0	
14	0	0	0	0	0	0	0	0	0	0	
15	0	0	0	0	0	0	0	0	0	0	
0	0	0	0	0	0	0	0	0	0	0	
1	0	0	0	0	0	0	0	0	0	0	
2	0	0	0	0	0	0	0	0	0	0	
3	0	0	0	0	0	0	0	0	0	0	
4	0	0	0	0	0	0	0	0	0	0	
5	0	0	0	0	0	0	0	0	0	0	
6	0	0	0	0	0	0	0	0	0	0	
7	0	0	0	0	0	0	0	0	0	0	
8	0	0	0	0	0	0	0	0	0	0	
9	0	0	0	0	0	0	0	0	0	0	
10	0	0	0	0	0	0	0	0	0	0	
11	0	0	0	0	0	0	0	0	0	0	
12	0	0	0	0	0	0	0	0	0	0	
13	0	0	0	0	0	0	0	0	0	0	
14	0	0	0	0	0	0	0	0	0	0	
15	0	0	0	0	0	0	0	0	0	0	
0	0	0	0	0	0	0	0	0	0	0	
1	0	0	0	0	0	0	0	0	0	0	
2	0	0	0	0	0	0	0	0	0	0	
3	0	0	0	0	0	0	0	0	0	0	
4	0	0	0	0	0	0	0	0	0	0	
5	0	0	0	0	0	0	0	0	0	0	
6	0	0	0	0	0	0	0	0	0	0	
7	0	0	0	0	0	0	0	0	0	0	
8	0	0	0	0	0	0	0	0	0	0	
9	0	0	0	0	0	0	0	0	0	0	
10	0	0	0	0	0	0	0	0	0	0	
11	0	0	0	0	0	0	0	0	0	0	
12	0	0	0	0	0	0	0	0	0	0	
13	0	0	0	0	0	0	0	0	0	0	
14	0	0	0	0	0	0	0	0	0	0	
15	0	0	0	0	0	0	59	0	0	0	
0	0	0	0	0	0	0	395	13	0	0	
1	0	0	0	0	0	0	547	7	0	0	
2	0	0	0	0	0	0	963	19	0	0	
3	0	0	0	0	0	0	963	19	0	0	
4	0	0	0	0	0	0	963	19	0	0	
5	0	0	0	0	0	0	963	48	0	0	
6	0	0	0	0	0	0	963	19	0	0	
7	0	0	0	0	0	0	963	19	0	0	
8	0	0	0	0	0	0	963	19	0	0	
9	0	0	0	0	0	0	963	19	0	0	
10	0	0	0	0	0	0	963	19	0	0	
11	0	0	0	0	0	0	964	19	0	0	
12	0	0	0	0	0	0	964	19	0	0	
13	0	0	0	0	0	0	964	19	0	0	
14	0	0	0	0	0	0	964	48	0	0	
15	0	0	0	0	0	0	964	19	0	0	
0	0	0	0	0	0	0	964	19	0	0	
1	0	0	0	0	0	0	963	48	0	0	
2	0	0	0	0	0	0	963	48	0	0	
3	0	0	0	0	0	0	963	19	0	0	
4	0	0	0	0	0	0	963	19	0	0	
5	0	0	0	0	0	0	963	19	0	0	
6	0	0	0	0	0	0	963	19	0	0	
7	0	0	0	0	0	0	963	19	0	0	
8	0	0	0	0	0	0	963	19	0	0	
9	0	0	0	0	0	0	960	19	0	0	
10	0	0	0	0	0	0	955	19	0	0	
11	0	0	0	0	0	0	944	19	0	0	
12	0	0	0	0	0	0	917	17	0	0	
13	0	0	0	0	0	0	944	46	0	0	
14	0	0	0	0	0	0	944	19	0	0	
15	0	0	0	0	0	0	944	19	0	0	
0	0	0	0	0	0	0	952	19	0	0	
1	0	0	0	0	0	0	956	19	0	0	
2	0	0	0	0	0	0	956	47	0	0	
3	0	0	0	0	0	0	956	19	0	0	
4	0	0	0	0	0	0	958	19	0	0	
5	0	0	0	0	0	0	958	19	0	0	
6	0	0	0	0	0	0	958	47	0	0	
7	0	0	0	0	0	0	959	19	0	0	
8	0	0	0	0	0	0	960	19	0	0	
9	0	0	0	0	0	0	958	19	0	0	
10	0	0	0	0	0	0	958	19	0	0	
11	0	0	0	0	0	0	959	19	0	0	
12	0	0	0	0	0	0	959	47	0	0	
13	0	0	0	0	0	0	959	47	0	0	
14	0	0	0	0	0	0	959	47	0	0	
15	0	0	0	0	0	0	959	19	0	0	
0	0	0	0	0	0	0	958	47	0	0	
1	0	0	0	0	0	0	956	19	0	0	
2	0	0	0	0	0	0	955	19	0	0	
3	0	0	0	0	0	0	954	19	0	0	
4	0	0	0	0	0	0	955	19	0	0	
5	0	0	0	0	0	0	955	19	0	0	
6	0	0	0	0	0	0	955	19	0	0	
7	0	0	0	0	0	0	955	19	0	0	
8	0	0	0	0	0	0	955	47	0	0	
9	0	0	0	0	0	0	954	47	0	0	
10	0	0	0	0	0	0	954	47	0	0	
11	0	0	0	0	0	0	694	11	0	0	
12	0	0	0	0	0	0	561	7	0	0	
13	0	0	0	0	0	0	681	11	0	0	
14	0	0	0	0	0	0	528	19	0	0	
15	0	0	0	0	0	0	591	8	0	0	
0	0	0	0	0	0	0	321	9	0	0	
1	0	0	0	0	0	0	353	11	0	0	
2	0	0	0	0	0	0	284	7	0	0	
3	0	0	0	0	0	0	536	19	0	0	
4	0	0	0	0	0	0	301	9	0	0	
5	0	0	0	0	0	0	307	3	0	0	
6	0	0	0	0	0	0	254	2	0	0	
7	0	0	0	0	0	0	447	6	0	0	
8	0	0	0	0	0	0	393	4	0	0	
9	0	0	0	0	0	0	596	8	0	0	
10	0	0	0	0	0	0	496	7	0	0	
11	0	0	0	0	0	0	675	11	0	0	
12	0	0	0	0	0	0	551	20	0	0	
13	0	0	0	0	0	0	691	11	0	0	
14	0	0	0	0	0	0	561	7	0	0	
15	0	0	0	0	0	0	676	15	0	0	
0	0	0	0	0	0	0	551	7	0	0	
1	0	0	0	0	0	0	691	11	0	0	
2	0	0	0	0	0	0	558	7	0	0	
3	0	0	0	0	0	0	705	12	0	0	
4	0	0	0	0	0	0	675	27	0	0	
5	0	0	0	0	0	0	937	46	0	0	
6	0	0	0	0	0	0	937	19	0	0	
7	0	0	0	0	0	0	939	19	0	0	
8	0	0	0	0	0	0	937	19	0	0	
9	0	0	0	0	0	0	939	19	0	0	
10	0	0	0	0	0	0	941	19	0	0	
11	0	0	0	0	0	0	944	19	0	0	
12	0	0	0	0	0	0	947	19	0	0	
13	0	0	0	0	0	0	956	19	0	0	
14	0	0	0	0	0	0	962	48	0	0	
15	0	0	0	0	0	0	957	47	0	0	
0	0	0	0	0	0	0	956	19	0	0	
1	0	0	0	0	0	0	953	19	0	0	
2	0	0	0	0	0	0	960	19	0	0	
3	0	0	0	0	0	0	966	19	0	0	
4	0	0	0	0	0	0	967	19	0	0	
5	0	0	0	0	0	0	967	48	0	0	
6	0	0	0	0	0	0	948	19	0	0	
7	0	0	0	0	0	0	963	19	0	0	
8	0	0	0	0	0	0	896	17	0	0	
9	0	0	0	0	0	0	831	37	0	0	
10	0	0	0	0	0	0	556	7	0	0	
11	0	0	0	0	0	0	568	7	0	0	
12	0	0	0	0	0	0	486	7	0	0	
13	0	0	0	0	0	0	559	20	0	0	
14	0	0	0	0	0	0	384	12	0	0	
15	0	0	0	0	0	0	352	3	0	0	
0	0	0	0	0	0	0	84	0	0	0	
1	0	0	0	0	0	0	0	0	0	0	
2	0	0	0	0	0	0	0	0	0	0	
3	0	0	0	0	0	0	0	0	0	0	
4	0	0	0	0	0	0	0	0	0	0	
5	0	0	0	0	0	0	0	0	0	0	
6	0	0	0	0	0	0	0	0	0	0	
7	0	0	0	0	0	0	0	0	0	0	
8	0	0	0	0	0	0	0	0	0	0	
9	0	0	0	0	0	0	0	0	0	0	
10	0	0	0	0	0	0	0	0	0	0	
11	0	0	0	0	0	0	0	0	0	0	
12	0	0	0	0	0	0	0	0	0	0	
13	0	0	0	0	0	0	0	0	0	0	
14	0	0	0	0	0	0	0	0	0	0	
15	0	0	0	0	0	0	0	0	0	0	
0	0	0	0	0	0	0	0	0	0	0	
1	0	0	0	0	0	0	0	0	0	0	
2	0	0	0	0	0	0	0	0	0	0	
3	0	0	0	0	0	0	0	0	0	0	
4	0	0	0	0	0	0	0	0	0	0	
5	0	0	0	0	0	0	0	0	0	0	
6	0	0	0	0	0	0	0	0	0	0	
7	0	0	0	0	0	0	0	0	0	0	
8	0	0	0	0	0	0	0	0	0	0	
9	0	0	0	0	0	0	0	0	0	0	
10	0	0	0	0	0	0	0	0	0	0	
11	0	0	0	0	0	0	0	0	0	0	
12	0	0	0	0	0	0	0	0	0	0	
13	0	0	0	0	0	0	0	0	0	0	
14	0	0	0	0	0	0	0	0	0	0	
15	0	0	0	0	0	0	0	0	0	0	
0	0	0	0	0	0	0	0	0	0	0	
1	0	0	0	0	0	0	0	0	0	0	
2	0	0	0	0	0	0	0	0	0	0	
3	0	0	0	0	0	0	0	0	0	0	
4	0	0	0	0	0	0	0	0	0	0	
5	0	0	0	0	0	0	0	0	0	0	
6	0	0	0	0	0	0	0	0	0	0	
7	0	0	0	0	0	0	0	0	0	0	
8	0	0	0	0	0	0	0	0	0	0	
9	0	0	0	0	0	0	0	0	0	0	
10	0	0	0	0	0	0	0	0	0	0	
11	0	0	0	0	0	0	0	0	0	0	
12	0	0	0	0	0	0	0	0	0	0	
13	0	0	0	0	0	0	0	0	0	0	
14	0	0	0	0	0	0	0	0	0	0	
15	0	0	0	0	0	0	0	0	0	0	
0	0	0	0	0	0	0	0	0	0	0	
1	0	0	0	0	0	0	611	9	0	0	
2	0	0	0	0	0	0	625	9	0	0	
3	0	0	0	0	0	0	873	39	0	0	
4	0	0	0	0	0	0	960	19	0	0	
5	0	0	0	0	0	0	961	19	0	0	
6	0	0	0	0	0	0	961	19	0	0	
7	0	0	0	0	0	0	961	48	0	0	
8	0	0	0	0	0	0	961	19	0	0	
9	0	0	0	0	0	0	961	48	0	0	
10	0	0	0	0	0	0	961	19	0	0	
11	0	0	0	0	0	0	961	19	0	0	
12	0	0	0	0	0	0	961	48	0	0	
13	0	0	0	0	0	0	961	19	0	0	
14	0	0	0	0	0	0	961	19	0	0	
15	0	0	0	0	0	0	961	47	0	0	
0	0	0	0	0	0	0	961	47	0	0	
1	0	0	0	0	0	0	961	19	0	0	
2	0	0	0	0	0	0	961	47	0	0	
3	0	0	0	0	0	0	961	47	0	0	
4	0	0	0	0	0	0	960	47	0	0	
5	0	0	0	0	0	0	960	19	0	0	
6	0	0	0	0	0	0	960	19	0	0	
7	0	0	0	0	0	0	960	19	0	0	
8	0	0	0	0	0	0	960	19	0	0	
9	0	0	0	0	0	0	960	19	0	0	
10	0	0	0	0	0	0	960	19	0	0	
11	0	0	0	0	0	0	960	19	0	0	
12	0	0	0	0	0	0	960	47	0	0	
13	0	0	0	0	0	0	960	19	0	0	
14	0	0	0	0	0	0	960	19	0	0	
15	0	0	0	0	0	0	960	19	0	0	
0	0	0	0	0	0	0	960	47	0	0	
1	0	0	0	0	0	0	959	19	0	0	
2	0	0	0	0	0	0	959	19	0	0	
3	0	0	0	0	0	0	959	47	0	0	
4	0	0	0	0	0	0	958	19	0	0	
5	0	0	0	0	0	0	958	19	0	0	
6	0	0	0	0	0	0	958	19	0	0	
7	0	0	0	0	0	0	958	19	0	0	
8	0	0	0	0	0	0	957	47	0	0	
9	0	0	0	0	0	0	957	19	0	0	
10	0	0	0	0	0	0	956	47	0	0	
11	0	0	0	0	0	0	956	19	0	0	
12	0	0	0	0	0	0	956	19	0	0	
13	0	0	0	0	0	0	956	19	0	0	
14	0	0	0	0	0	0	956	19	0	0	
15	0	0	0	0	0	0	956	19	0	0	
0	0	0	0	0	0	0	956	47	0	0	
1	0	0	0	0	0	0	956	47	0	0	
2	0	0	0	0	0	0	956	19	0	0	
3	0	0	0	0	0	0	956	47	0	0	
4	0	0	0	0	0	0	956	47	0	0	
5	0	0	0	0	0	0	956	19	0	0	
6	0	0	0	0	0	0	956	19	0	0	
7	0	0	0	0	0	0	956	19	0	0	
8	0	0	0	0	0	0	956	47	0	0	
9	0	0	0	0	0	0	956	19	0	0	
10	0	0	0	0	0	0	956	19	0	0	
11	0	0	0	0	0	0	956	19	0	0	
12	0	0	0	0	0	0	956	47	0	0	
13	0	0	0	0	0	0	956	19	0	0	
14	0	0	0	0	0	0	956	19	0	0	
15	0	0	0	0	0	0	956	47	0	0	
0	0	0	0	0	0	0	956	47	0	0	
1	0	0	0	0	0	0	956	19	0	0	
2	0	0	0	0	0	0	956	47	0	0	
3	0	0	0	0	0	0	956	19	0	0	
4	0	0	0	0	0	0	956	19	0	0	
5	0	0	0	0	0	0	956	19	0	0	
6	0	0	0	0	0	0	956	19	0	0	
7	0	0	0	0	0	0	956	19	0	0	
8	0	0	0	0	0	0	956	47	0	0	
9	0	0	0	0	0	0	956	19	0	0	
10	0	0	0	0	0	0	956	19	0	0	
11	0	0	0	0	0	0	956	19	0	0	
12	0	0	0	0	0	0	957	19	0	0	
13	0	0	0	0	0	0	958	47	0	0	
14	0	0	0	0	0	0	958	19	0	0	
15	0	0	0	0	0	0	958	47	0	0	
0	0	0	0	0	0	0	958	19	0	0	
1	0	0	0	0	0	0	958	19	0	0	
2	0	0	0	0	0	0	958	47	0	0	
3	0	0	0	0	0	0	958	47	0	0	
4	0	0	0	0	0	0	957	19	0	0	
5	0	0	0	0	0	0	956	19	0	0	
6	0	0	0	0	0	0	956	19	0	0	
7	0	0	0	0	0	0	956	19	0	0	
8	0	0	0	0	0	0	955	19	0	0	
9	0	0	0	0	0	0	955	19	0	0	
10	0	0	0	0	0	0	956	19	0	0	
11	0	0	0	0	0	0	956	19	0	0	
12	0	0	0	0	0	0	956	19	0	0	
13	0	0	0	0	0	0	955	47	0	0	
14	0	0	0	0	0	0	955	47	0	0	
15	0	0	0	0	0	0	955	47	0	0	
0	0	0	0	0	0	0	955	19	0	0	
1	0	0	0	0	0	0	955	19	0	0	
2	0	0	0	0	0	0	955	19	0	0	
3	0	0	0	0	0	0	954	47	0	0	
4	0	0	0	0	0	0	953	19	0	0	
5	0	0	0	0	0	0	953	19	0	0	
6	0	0	0	0	0	0	953	19	0	0	
7	0	0	0	0	0	0	953	19	0	0	
8	0	0	0	0	0	0	953	19	0	0	
9	0	0	0	0	0	0	953	19	0	0	
10	0	0	0	0	0	0	953	19	0	0	
11	0	0	0	0	0	0	954	47	0	0	
12	0	0	0	0	0	0	953	47	0	0	
13	0	0	0	0	0	0	954	19	0	0	
14	0	0	0	0	0	0	954	19	0	0	
15	0	0	0	0	0	0	954	19	0	0	
0	0	0	0	0	0	0	793	14	0	0	
1	0	0	0	0	0	0	609	9	0	0	
2	0	0	0	0	0	0	402	4	0	0	
3	0	0	0	0	0	0	287	7	0	0	
4	0	0	0	0	0	0	81	1	0	0	
5	0	0	0	0	0	0	92	0	0	0	
6	0	0	0	0	0	0	6	0	0	0	
7	0	0	0	0	0	0	131	3	0	0	
8	0	0	0	0	0	0	166	0	0	0	
9	0	0	0	0	0	0	389	12	0	0	
10	0	0	0	0	0	0	567	21	0	0	
11	0	0	0	0	0	0	856	15	0	0	
12	0	0	0	0	0	0	719	12	0	0	
13	0	0	0	0	0	0	753	31	0	0	
14	0	0	0	0	0	0	768	13	0	0	
15	0	0	0	0	0	0	891	17	0	0	
0	0	0	0	0	0	0	868	39	0	0	
1	0	0	0	0	0	0	955	19	0	0	
2	0	0	0	0	0	0	916	44	0	0	
3	0	0	0	0	0	0	948	46	0	0	
4	0	0	0	0	0	0	847	15	0	0	
5	0	0	0	0	0	0	803	14	0	0	
6	0	0	0	0	0	0	627	24	0	0	
7	0	0	0	0	0	0	579	7	0	0	
8	0	0	0	0	0	0	412	5	0	0	
9	0	0	0	0	0	0	398	4	0	0	
10	0	0	0	0	0	0	217	6	0	0	
11	0	0	0	0	0	0	152	0	0	0	
12	0	0	0	0	0	0	0	0	0	0	
13	0	0	0	0	0	0	38	0	0	0	
14	0	0	0	0	0	0	0	0	0	0	
15	0	0	0	0	0	0	49	0	0	0	
0	0	0	0	0	0	0	35	0	0	0	
1	0	0	0	0	0	0	55	0	0	0	
2	0	0	0	0	0	0	0	0	0	0	
3	0	0	0	0	0	0	0	0	0	0	
4	0	0	0	0	0	0	0	0	0	0	
5	0	0	0	0	0	0	0	0	0	0	
6	0	0	0	0	0	0	0	0	0	0	
7	0	0	0	0	0	0	0	0	0	0	
8	0	0	0	0	0	0	0	0	0	0	
9	0	0	0	0	0	0	0	0	0	0	
10	0	0	0	0	0	0	0	0	0	0	
11	0	0	0	0	0	0	0	0	0	0	
12	0	0	0	0	0	0	0	0	0	0	
13	0	0	0	0	0	0	0	0	0	0	
14	0	0	0	0	0	0	930	19	0	0	
15	0	0	0	0	0	0	961	19	0	0	
0	0	0	0	0	0	0	961	19	0	0	
1	0	0	0	0	0	0	963	48	0	0	
2	0	0	0	0	0	0	963	19	0	0	
3	0	0	0	0	0	0	964	19	0	0	
4	0	0	0	0	0	0	963	19	0	0	
5	0	0	0	0	0	0	963	19	0	0	
6	0	0	0	0	0	0	897	41	0	0	
7	0	0	0	0	0	0	0	0	0	0	
8	0	0	0	0	0	0	0	0	0	0	
9	0	0	0	0	0	0	0	0	0	0	
10	0	0	0	0	0	0	0	0	0	0	
11	0	0	0	0	0	0	0	0	0	0	
12	0	0	0	0	0	0	0	0	0	0	
13	0	0	0	0	0	0	0	0	0	0	
14	0	0	0	0	0	0	0	0	0	0	
15	0	0	0	0	0	0	0	0	0	0	
0	0	0	0	0	0	0	0	0	0	0	
1	0	0	0	0	0	0	0	0	0	0	
2	0	0	0	0	0	0	0	0	0	0	
3	0	0	0	0	0	0	0	0	0	0	
4	0	0	0	0	0	0	0	0	0	0	
5	0	0	0	0	0	0	0	0	0	0	
6	0	0	0	0	0	0	0	0	0	0	
7	0	0	0	0	0	0	0	0	0	0	
8	0	0	0	0	0	0	0	0	0	0	
9	0	0	0	0	0	0	0	0	0	0	
10	0	0	0	0	0	0	0	0	0	0	
11	0	0	0	0	0	0	0	0	0	0	
12	0	0	0	0	0	0	0	0	0	0	
13	0	0	0	0	0	0	0	0	0	0	
14	0	0	0	0	0	0	0	0	0	0	
15	0	0	0	0	0	0	0	0	0	0	
0	0	0	0	0	0	0	0	0	0	0	
1	0	0	0	0	0	0	0	0	0	0	
2	0	0	0	0	0	0	0	0	0	0	
3	0	0	0	0	0	0	0	0	0	0	
4	0	0	0	0	0	0	0	0	0	0	
5	0	0	0	0	0	0	0	0	0	0	
6	0	0	0	0	0	0	0	0	0	0	
7	0	0	0	0	0	0	0	0	0	0	
8	0	0	0	0	0	0	0	0	0	0	
9	0	0	0	0	0	0	0	0	0	0	
10	0	0	0	0	0	0	0	0	0	0	
11	0	0	0	0	0	0	0	0	0	0	
12	0	0	0	0	0	0	0	0	0	0	
13	0	0	0	0	0	0	0	0	0	0	
14	0	0	0	0	0	0	0	0	0	0	
15	0	0	0	0	0	0	0	0	0	0	
0	0	0	0	0	0	0	0	0	0	0	
1	0	0	0	0	0	0	0	0	0	0	
2	0	0	0	0	0	0	962	19	0	0	
3	0	0	0	0	0	0	962	19	0	0	
4	0	0	0	0	0	0	963	19	0	0	
5	0	0	0	0	0	0	963	19	0	0	
6	0	0	0	0	0	0	963	19	0	0	
7	0	0	0	0	0	0	963	48	0	0	
8	0	0	0	0	0	0	962	19	0	0	
9	0	0	0	0	0	0	962	19	0	0	
10	0	0	0	0	0	0	962	48	0	0	
11	0	0	0	0	0	0	963	48	0	0	
12	0	0	0	0	0	0	963	48	0	0	
13	0	0	0	0	0	0	963	19	0	0	
14	0	0	0	0	0	0	963	19	0	0	
15	0	0	0	0	0	0	963	48	0	0	
0	0	0	0	0	0	0	963	48	0	0	
1	0	0	0	0	0	0	963	19	0	0	
2	0	0	0	0	0	0	963	48	0	0	
3	0	0	0	0	0	0	963	19	0	0	
4	0	0	0	0	0	0	963	19	0	0	
5	0	0	0	0	0	0	0	0	0	0	
6	0	0	0	0	0	0	0	0	0	0	
7	0	0	0	0	0	0	0	0	0	0	
8	0	0	0	0	0	0	0	0	0	0	
9	0	0	0	0	0	0	0	0	0	0	
10	0	0	0	0	0	0	0	0	0	0	
11	0	0	0	0	0	0	0	0	0	0	
12	0	0	0	0	0	0	0	0	0	0	
13	0	0	0	0	0	0	0	0	0	0	
14	0	0	0	0	0	0	0	0	0	0	
15	0	0	0	0	0	0	177	1	0	0	
0	0	0	0	0	0	0	671	11	0	0	
1	0	0	0	0	0	0	571	7	0	0	
2	0	0	0	0	0	0	963	19	0	0	
3	0	0	0	0	0	0	963	48	0	0	
4	0	0	0	0	0	0	963	19	0	0	
5	0	0	0	0	0	0	963	19	0	0	
6	0	0	0	0	0	0	963	19	0	0	
7	0	0	0	0	0	0	963	48	0	0	
8	0	0	0	0	0	0	962	19	0	0	
9	0	0	0	0	0	0	963	48	0	0	
10	0	0	0	0	0	0	966	48	0	0	
11	0	0	0	0	0	0	966	19	0	0	
12	0	0	0	0	0	0	966	48	0	0	
13	0	0	0	0	0	0	966	48	0	0	
14	0	0	0	0	0	0	966	19	0	0	
15	0	0	0	0	0	0	966	19	0	0	
0	0	0	0	0	0	0	966	19	0	0	
1	0	0	0	0	0	0	966	48	0	0	
2	0	0	0	0	0	0	963	19	0	0	
3	0	0	0	0	0	0	961	19	0	0	
4	0	0	0	0	0	0	961	19	0	0	
5	0	0	0	0	0	0	961	48	0	0	
6	0	0	0	0	0	0	961	19	0	0	
7	0	0	0	0	0	0	961	19	0	0	
8	0	0	0	0	0	0	962	48	0	0	
9	0	0	0	0	0	0	962	48	0	0	
10	0	0	0	0	0	0	962	19	0	0	
11	0	0	0	0	0	0	963	19	0	0	
12	0	0	0	0	0	0	963	48	0	0	
13	0	0	0	0	0	0	963	48	0	0	
14	0	0	0	0	0	0	963	48	0	0	
15	0	0	0	0	0	0	489	17	0	0	
0	0	0	0	0	0	0	249	2	0	0	
1	0	0	0	0	0	0	152	3	0	0	
2	0	0	0	0	0	0	51	0	0	0	
3	0	0	0	0	0	0	0	0	0	0	
4	0	0	0	0	0	0	0	0	0	0	
5	0	0	0	0	0	0	0	0	0	0	
6	0	0	0	0	0	0	0	0	0	0	
7	0	0	0	0	0	0	91	0	0	0	
8	0	0	0	0	0	0	251	2	0	0	
9	0	0	0	0	0	0	481	17	0	0	
10	0	0	0	0	0	0	824	36	0	0	
11	0	0	0	0	0	0	963	48	0	0	
12	0	0	0	0	0	0	963	19	0	0	
13	0	0	0	0	0	0	963	48	0	0	
14	0	0	0	0	0	0	962	48	0	0	
15	0	0	0	0	0	0	962	19	0	0	
0	0	0	0	0	0	0	962	19	0	0	
1	0	0	0	0	0	0	962	19	0	0	
2	0	0	0	0	0	0	962	19	0	0	
3	0	0	0	0	0	0	962	19	0	0	
4	0	0	0	0	0	0	962	48	0	0	
5	0	0	0	0	0	0	962	19	0	0	
6	0	0	0	0	0	0	962	19	0	0	
7	0	0	0	0	0	0	962	19	0	0	
8	0	0	0	0	0	0	962	19	0	0	
9	0	0	0	0	0	0	963	19	0	0	
10	0	0	0	0	0	0	963	48	0	0	
11	0	0	0	0	0	0	963	48	0	0	
12	0	0	0	0	0	0	963	19	0	0	
13	0	0	0	0	0	0	963	48	0	0	
14	0	0	0	0	0	0	963	19	0	0	
15	0	0	0	0	0	0	962	19	0	0	
0	0	0	0	0	0	0	600	8	0	0	
1	0	0	0	0	0	0	487	17	0	0	
2	0	0	0	0	0	0	457	6	0	0	
3	0	0	0	0	0	0	263	2	0	0	
4	0	0	0	0	0	0	195	1	0	0	
5	0	0	0	0	0	0	11	0	0	0	
6	0	0	0	0	0	0	0	0	0	0	
7	0	0	0	0	0	0	0	0	0	0	
8	0	0	0	0	0	0	0	0	0	0	
9	0	0	0	0	0	0	0	0	0	0	
10	0	0	0	0	0	0	0	0	0	0	
11	0	0	0	0	0	0	19	0	0	0	
12	0	0	0	0	0	0	249	2	0	0	
13	0	0	0	0	0	0	236	7	0	0	
14	0	0	0	0	0	0	423	6	0	0	
15	0	0	0	0	0	0	512	18	0	0	
0	0	0	0	0	0	0	745	12	0	0	
1	0	0	0	0	0	0	891	17	0	0	
2	0	0	0	0	0	0	963	19	0	0	
3	0	0	0	0	0	0	963	19	0	0	
4	0	0	0	0	0	0	963	19	0	0	
5	0	0	0	0	0	0	963	19	0	0	
6	0	0	0	0	0	0	963	48	0	0	
7	0	0	0	0	0	0	963	48	0	0	
8	0	0	0	0	0	0	963	19	0	0	
9	0	0	0	0	0	0	963	48	0	0	
10	0	0	0	0	0	0	963	19	0	0	
11	0	0	0	0	0	0	963	48	0	0	
12	0	0	0	0	0	0	963	48	0	0	
13	0	0	0	0	0	0	963	19	0	0	
14	0	0	0	0	0	0	963	48	0	0	
15	0	0	0	0	0	0	963	19	0	0	
0	0	0	0	0	0	0	963	19	0	0	
1	0	0	0	0	0	0	963	48	0	0	
2	0	0	0	0	0	0	963	19	0	0	
3	0	0	0	0	0	0	940	19	0	0	
4	0	0	0	0	0	0	896	41	0	0	
5	0	0	0	0	0	0	723	12	0	0	
6	0	0	0	0	0	0	662	11	0	0	
7	0	0	0	0	0	0	455	15	0	0	
8	0	0	0	0	0	0	342	3	0	0	
9	0	0	0	0	0	0	120	0	0	0	
10	0	0	0	0	0	0	27	0	0	0	
11	0	0	0	0	0	0	0	0	0	0	
12	0	0	0	0	0	0	0	0	0	0	
13	0	0	0	0	0	0	0	0	0	0	
14	0	0	0	0	0	0	0	0	0	0	
15	0	0	0	0	0	0	0	0	0	0	
0	0	0	0	0	0	0	0	0	0	0	
1	0	0	0	0	0	0	0	0	0	0	
2	0	0	0	0	0	0	103	1	0	0	
3	0	0	0	0	0	0	363	4	0	0	
4	0	0	0	0	0	0	480	7	0	0	
5	0	0	0	0	0	0	531	7	0	0	
6	0	0	0	0	0	0	686	11	0	0	
7	0	0	0	0	0	0	678	11	0	0	
8	0	0	0	0	0	0	755	12	0	0	
9	0	0	0	0	0	0	671	11	0	0	
10	0	0	0	0	0	0	699	28	0	0	
11	0	0	0	0	0	0	604	9	0	0	
12	0	0	0	0	0	0	652	10	0	0	
13	0	0	0	0	0	0	540	19	0	0	
14	0	0	0	0	0	0	588	22	0	0	
15	0	0	0	0	0	0	526	19	0	0	
0	0	0	0	0	0	0	614	24	0	0	
1	0	0	0	0	0	0	595	8	0	0	
2	0	0	0	0	0	0	719	30	0	0	
3	0	0	0	0	0	0	722	12	0	0	
4	0	0	0	0	0	0	845	15	0	0	
5	0	0	0	0	0	0	831	15	0	0	
6	0	0	0	0	0	0	919	44	0	0	
7	0	0	0	0	0	0	844	38	0	0	
8	0	0	0	0	0	0	860	15	0	0	
9	0	0	0	0	0	0	726	30	0	0	
10	0	0	0	0	0	0	705	12	0	0	
11	0	0	0	0	0	0	527	19	0	0	
12	0	0	0	0	0	0	475	7	0	0	
13	0	0	0	0	0	0	295	8	0	0	
14	0	0	0	0	0	0	255	7	0	0	
15	0	0	0	0	0	0	130	0	0	0	
0	0	0	0	0	0	0	162	3	0	0	
1	0	0	0	0	0	0	99	0	0	0	
2	0	0	0	0	0	0	199	5	0	0	
3	0	0	0	0	0	0	176	1	0	0	
4	0	0	0	0	0	0	288	3	0	0	
5	0	0	0	0	0	0	265	3	0	0	
6	0	0	0	0	0	0	412	5	0	0	
7	0	0	0	0	0	0	434	6	0	0	
8	0	0	0	0	0	0	527	7	0	0	
9	0	0	0	0	0	0	543	7	0	0	
10	0	0	0	0	0	0	756	13	0	0	
11	0	0	0	0	0	0	733	31	0	0	
12	0	0	0	0	0	0	556	7	0	0	
13	0	0	0	0	0	0	370	12	0	0	
14	0	0	0	0	0	0	423	6	0	0	
15	0	0	0	0	0	0	326	3	0	0	
0	0	0	0	0	0	0	354	3	0	0	
1	0	0	0	0	0	0	297	8	0	0	
2	0	0	0	0	0	0	393	4	0	0	
3	0	0	0	0	0	0	390	4	0	0	
4	0	0	0	0	0	0	516	19	0	0	
5	0	0	0	0	0	0	531	7	0	0	
6	0	0	0	0	0	0	643	9	0	0	
7	0	0	0	0	0	0	633	24	0	0	
8	0	0	0	0	0	0	777	14	0	0	
9	0	0	0	0	0	0	768	13	0	0	
10	0	0	0	0	0	0	841	15	0	0	
11	0	0	0	0	0	0	731	12	0	0	
12	0	0	0	0	0	0	705	12	0	0	
13	0	0	0	0	0	0	529	19	0	0	
14	0	0	0	0	0	0	472	6	0	0	
15	0	0	0	0	0	0	300	3	0	0	
0	0	0	0	0	0	0	239	2	0	0	
1	0	0	0	0	0	0	124	0	0	0	
2	0	0	0	0	0	0	192	4	0	0	
3	0	0	0	0	0	0	105	0	0	0	
4	0	0	0	0	0	0	164	3	0	0	
5	0	0	0	0	0	0	167	1	0	0	
6	0	0	0	0	0	0	294	3	0	0	
7	0	0	0	0	0	0	317	9	0	0	
8	0	0	0	0	0	0	489	7	0	0	
9	0	0	0	0	0	0	511	7	0	0	
10	0	0	0	0	0	0	693	11	0	0	
11	0	0	0	0	0	0	700	12	0	0	
12	0	0	0	0	0	0	787	14	0	0	
13	0	0	0	0	0	0	690	11	0	0	
14	0	0	0	0	0	0	705	29	0	0	
15	0	0	0	0	0	0	568	21	0	0	
0	0	0	0	0	0	0	530	7	0	0	
1	0	0	0	0	0	0	401	4	0	0	
2	0	0	0	0	0	0	391	4	0	0	
3	0	0	0	0	0	0	289	3	0	0	
4	0	0	0	0	0	0	352	11	0	0	
5	0	0	0	0	0	0	316	9	0	0	
6	0	0	0	0	0	0	423	6	0	0	
7	0	0	0	0	0	0	390	12	0	0	
8	0	0	0	0	0	0	518	7	0	0	
9	0	0	0	0	0	0	508	18	0	0	
10	0	0	0	0	0	0	612	9	0	0	
11	0	0	0	0	0	0	611	9	0	0	
12	0	0	0	0	0	0	711	29	0	0	
13	0	0	0	0	0	0	633	9	0	0	
14	0	0	0	0	0	0	677	11	0	0	
15	0	0	0	0	0	0	540	19	0	0	
0	0	0	0	0	0	0	520	7	0	0	
1	0	0	0	0	0	0	364	4	0	0	
2	0	0	0	0	0	0	341	3	0	0	
3	0	0	0	0	0	0	211	6	0	0	
4	0	0	0	0	0	0	192	1	0	0	
5	0	0	0	0	0	0	54	0	0	0	
6	0	0	0	0	0	0	120	0	0	0	
7	0	0	0	0	0	0	80	0	0	0	
8	0	0	0	0	0	0	222	6	0	0	
9	0	0	0	0	0	0	270	7	0	0	
10	0	0	0	0	0	0	432	6	0	0	
11	0	0	0	0	0	0	441	15	0	0	
12	0	0	0	0	0	0	607	9	0	0	
13	0	0	0	0	0	0	707	12	0	0	
14	0	0	0	0	0	0	963	48	0	0	
15	0	0	0	0	0	0	963	19	0	0	
0	0	0	0	0	0	0	807	14	0	0	
1	0	0	0	0	0	0	615	9	0	0	
2	0	0	0	0	0	0	679	28	0	0	
3	0	0	0	0	0	0	547	7	0	0	
4	0	0	0	0	0	0	547	7	0	0	
5	0	0	0	0	0	0	433	6	0	0	
6	0	0	0	0	0	0	486	17	0	0	
7	0	0	0	0	0	0	433	6	0	0	
8	0	0	0	0	0	0	519	7	0	0	
9	0	0	0	0	0	0	468	6	0	0	
10	0	0	0	0	0	0	551	20	0	0	
11	0	0	0	0	0	0	523	7	0	0	
12	0	0	0	0	0	0	630	9	0	0	
13	0	0	0	0	0	0	632	9	0	0	
14	0	0	0	0	0	0	743	12	0	0	
15	0	0	0	0	0	0	684	28	0	0	
0	0	0	0	0	0	0	728	12	0	0	
1	0	0	0	0	0	0	607	9	0	0	
2	0	0	0	0	0	0	604	9	0	0	
3	0	0	0	0	0	0	460	15	0	0	
4	0	0	0	0	0	0	452	6	0	0	
5	0	0	0	0	0	0	321	9	0	0	
6	0	0	0	0	0	0	300	3	0	0	
7	0	0	0	0	0	0	176	3	0	0	
8	0	0	0	0	0	0	204	5	0	0	
9	0	0	0	0	0	0	140	0	0	0	
10	0	0	0	0	0	0	243	2	0	0	
11	0	0	0	0	0	0	239	2	0	0	
12	0	0	0	0	0	0	398	4	0	0	
13	0	0	0	0	0	0	409	5	0	0	
14	0	0	0	0	0	0	566	7	0	0	
15	0	0	0	0	0	0	555	7	0	0	
0	0	0	0	0	0	0	696	12	0	0	
1	0	0	0	0	0	0	678	27	0	0	
2	0	0	0	0	0	0	743	31	0	0	
3	0	0	0	0	0	0	659	11	0	0	
4	0	0	0	0	0	0	684	28	0	0	
5	0	0	0	0	0	0	582	22	0	0	
6	0	0	0	0	0	0	587	8	0	0	
7	0	0	0	0	0	0	467	6	0	0	
8	0	0	0	0	0	0	519	7	0	0	
9	0	0	0	0	0	0	428	15	0	0	
10	0	0	0	0	0	0	496	7	0	0	
11	0	0	0	0	0	0	454	15	0	0	
12	0	0	0	0	0	0	546	7	0	0	
13	0	0	0	0	0	0	492	7	0	0	
14	0	0	0	0	0	0	620	9	0	0	
15	0	0	0	0	0	0	602	9	0	0	
0	0	0	0	0	0	0	736	12	0	0	
1	0	0	0	0	0	0	704	12	0	0	
2	0	0	0	0	0	0	775	14	0	0	
3	0	0	0	0	0	0	711	29	0	0	
4	0	0	0	0	0	0	736	12	0	0	
5	0	0	0	0	0	0	617	9	0	0	
6	0	0	0	0	0	0	619	9	0	0	
7	0	0	0	0	0	0	472	16	0	0	
8	0	0	0	0	0	0	476	16	0	0	
9	0	0	0	0	0	0	348	3	0	0	
10	0	0	0	0	0	0	391	12	0	0	
11	0	0	0	0	0	0	335	3	0	0	
12	0	0	0	0	0	0	400	13	0	0	
13	0	0	0	0	0	0	349	3	0	0	
14	0	0	0	0	0	0	470	6	0	0	
15	0	0	0	0	0	0	467	6	0	0	
0	0	0	0	0	0	0	584	22	0	0	
1	0	0	0	0	0	0	614	9	0	0	
2	0	0	0	0	0	0	740	12	0	0	
3	0	0	0	0	0	0	727	30	0	0	
4	0	0	0	0	0	0	809	14	0	0	
5	0	0	0	0	0	0	736	31	0	0	
6	0	0	0	0	0	0	761	13	0	0	
7	0	0	0	0	0	0	623	24	0	0	
8	0	0	0	0	0	0	608	9	0	0	
9	0	0	0	0	0	0	483	17	0	0	
10	0	0	0	0	0	0	452	6	0	0	
11	0	0	0	0	0	0	371	4	0	0	
12	0	0	0	0	0	0	568	7	0	0	
13	0	0	0	0	0	0	573	7	0	0	
14	0	0	0	0	0	0	459	15	0	0	
15	0	0	0	0	0	0	332	3	0	0	
0	0	0	0	0	0	0	486	7	0	0	
1	0	0	0	0	0	0	492	7	0	0	
2	0	0	0	0	0	0	617	9	0	0	
3	0	0	0	0	0	0	574	22	0	0	
4	0	0	0	0	0	0	682	11	0	0	
5	0	0	0	0	0	0	659	11	0	0	
6	0	0	0	0	0	0	768	13	0	0	
7	0	0	0	0	0	0	673	11	0	0	
8	0	0	0	0	0	0	707	29	0	0	
9	0	0	0	0	0	0	564	7	0	0	
10	0	0	0	0	0	0	553	7	0	0	
11	0	0	0	0	0	0	402	13	0	0	
12	0	0	0	0	0	0	407	14	0	0	
13	0	0	0	0	0	0	280	3	0	0	
14	0	0	0	0	0	0	280	3	0	0	
15	0	0	0	0	0	0	147	0	0	0	
0	0	0	0	0	0	0	184	1	0	0	
1	0	0	0	0	0	0	131	3	0	0	
2	0	0	0	0	0	0	237	2	0	0	
3	0	0	0	0	0	0	248	2	0	0	
4	0	0	0	0	0	0	388	12	0	0	
5	0	0	0	0	0	0	391	4	0	0	
6	0	0	0	0	0	0	588	8	0	0	
7	0	0	0	0	0	0	628	24	0	0	
8	0	0	0	0	0	0	760	31	0	0	
9	0	0	0	0	0	0	700	12	0	0	
10	0	0	0	0	0	0	766	13	0	0	
11	0	0	0	0	0	0	681	28	0	0	
12	0	0	0	0	0	0	702	12	0	0	
13	0	0	0	0	0	0	556	7	0	0	
14	0	0	0	0	0	0	552	7	0	0	
15	0	0	0	0	0	0	430	6	0	0	
0	0	0	0	0	0	0	428	6	0	0	
1	0	0	0	0	0	0	296	3	0	0	
2	0	0	0	0	0	0	383	12	0	0	
3	0	0	0	0	0	0	300	3	0	0	
4	0	0	0	0	0	0	375	4	0	0	
5	0	0	0	0	0	0	334	11	0	0	
6	0	0	0	0	0	0	455	6	0	0	
7	0	0	0	0	0	0	428	6	0	0	
8	0	0	0	0	0	0	536	19	0	0	
9	0	0	0	0	0	0	501	17	0	0	
10	0	0	0	0	0	0	615	9	0	0	
11	0	0	0	0	0	0	543	7	0	0	
12	0	0	0	0	0	0	603	23	0	0	
13	0	0	0	0	0	0	504	7	0	0	
14	0	0	0	0	0	0	537	19	0	0	
15	0	0	0	0	0	0	441	15	0	0	
0	0	0	0	0	0	0	475	7	0	0	
1	0	0	0	0	0	0	376	12	0	0	
2	0	0	0	0	0	0	423	6	0	0	
3	0	0	0	0	0	0	355	12	0	0	
4	0	0	0	0	0	0	457	6	0	0	
5	0	0	0	0	0	0	399	13	0	0	
6	0	0	0	0	0	0	483	17	0	0	
7	0	0	0	0	0	0	445	15	0	0	
8	0	0	0	0	0	0	563	20	0	0	
9	0	0	0	0	0	0	545	7	0	0	
10	0	0	0	0	0	0	647	25	0	0	
11	0	0	0	0	0	0	600	9	0	0	
12	0	0	0	0	0	0	704	12	0	0	
13	0	0	0	0	0	0	639	9	0	0	
14	0	0	0	0	0	0	696	12	0	0	
15	0	0	0	0	0	0	595	8	0	0	
0	0	0	0	0	0	0	619	24	0	0	
1	0	0	0	0	0	0	469	16	0	0	
2	0	0	0	0	0	0	484	17	0	0	
3	0	0	0	0	0	0	345	3	0	0	
4	0	0	0	0	0	0	385	12	0	0	
5	0	0	0	0	0	0	419	5	0	0	
6	0	0	0	0	0	0	622	9	0	0	
7	0	0	0	0	0	0	463	15	0	0	
8	0	0	0	0	0	0	361	12	0	0	
9	0	0	0	0	0	0	352	11	0	0	
10	0	0	0	0	0	0	473	7	0	0	
11	0	0	0	0	0	0	408	5	0	0	
12	0	0	0	0	0	0	508	7	0	0	
13	0	0	0	0	0	0	439	15	0	0	
14	0	0	0	0	0	0	505	7	0	0	
15	0	0	0	0	0	0	433	6	0	0	
0	0	0	0	0	0	0	492	7	0	0	
1	0	0	0	0	0	0	364	12	0	0	
2	0	0	0	0	0	0	400	13	0	0	
3	0	0	0	0	0	0	299	8	0	0	
4	0	0	0	0	0	0	371	4	0	0	
5	0	0	0	0	0	0	310	3	0	0	
6	0	0	0	0	0	0	375	4	0	0	
7	0	0	0	0	0	0	305	3	0	0	
8	0	0	0	0	0	0	399	4	0	0	
9	0	0	0	0	0	0	344	11	0	0	
10	0	0	0	0	0	0	410	5	0	0	
11	0	0	0	0	0	0	368	4	0	0	
12	0	0	0	0	0	0	467	15	0	0	
13	0	0	0	0	0	0	425	6	0	0	
14	0	0	0	0	0	0	548	7	0	0	
15	0	0	0	0	0	0	494	7	0	0	
0	0	0	0	0	0	0	569	7	0	0	
1	0	0	0	0	0	0	480	17	0	0	
2	0	0	0	0	0	0	510	7	0	0	
3	0	0	0	0	0	0	415	5	0	0	
4	0	0	0	0	0	0	468	16	0	0	
5	0	0	0	0	0	0	399	4	0	0	
6	0	0	0	0	0	0	485	7	0	0	
7	0	0	0	0	0	0	440	6	0	0	
8	0	0	0	0	0	0	547	19	0	0	
9	0	0	0	0	0	0	489	7	0	0	
10	0	0	0	0	0	0	588	22	0	0	
11	0	0	0	0	0	0	560	20	0	0	
12	0	0	0	0	0	0	675	11	0	0	
13	0	0	0	0	0	0	639	25	0	0	
14	0	0	0	0	0	0	719	12	0	0	
15	0	0	0	0	0	0	659	26	0	0	
0	0	0	0	0	0	0	723	12	0	0	
1	0	0	0	0	0	0	624	9	0	0	
2	0	0	0	0	0	0	667	27	0	0	
3	0	0	0	0	0	0	531	7	0	0	
4	0	0	0	0	0	0	559	20	0	0	
5	0	0	0	0	0	0	414	14	0	0	
6	0	0	0	0	0	0	399	13	0	0	
7	0	0	0	0	0	0	262	7	0	0	
8	0	0	0	0	0	0	295	3	0	0	
9	0	0	0	0	0	0	181	1	0	0	
10	0	0	0	0	0	0	267	7	0	0	
11	0	0	0	0	0	0	227	1	0	0	
12	0	0	0	0	0	0	350	3	0	0	
13	0	0	0	0	0	0	332	10	0	0	
14	0	0	0	0	0	0	467	16	0	0	
15	0	0	0	0	0	0	476	7	0	0	
0	0	0	0	0	0	0	617	9	0	0	
1	0	0	0	0	0	0	591	8	0	0	
2	0	0	0	0	0	0	704	12	0	0	
3	0	0	0	0	0	0	643	25	0	0	
4	0	0	0	0	0	0	712	12	0	0	
5	0	0	0	0	0	0	604	23	0	0	
6	0	0	0	0	0	0	632	9	0	0	
7	0	0	0	0	0	0	486	17	0	0	
8	0	0	0	0	0	0	487	17	0	0	
9	0	0	0	0	0	0	332	3	0	0	
10	0	0	0	0	0	0	359	4	0	0	
11	0	0	0	0	0	0	255	2	0	0	
12	0	0	0	0	0	0	304	9	0	0	
13	0	0	0	0	0	0	265	7	0	0	
14	0	0	0	0	0	0	362	12	0	0	
15	0	0	0	0	0	0	352	3	0	0	
0	0	0	0	0	0	0	492	7	0	0	
1	0	0	0	0	0	0	476	7	0	0	
2	0	0	0	0	0	0	595	8	0	0	
3	0	0	0	0	0	0	537	19	0	0	
4	0	0	0	0	0	0	745	31	0	0	
5	0	0	0	0	0	0	819	36	0	0	
6	0	0	0	0	0	0	847	15	0	0	
7	0	0	0	0	0	0	508	7	0	0	
8	0	0	0	0	0	0	526	7	0	0	
9	0	0	0	0	0	0	395	4	0	0	
10	0	0	0	0	0	0	395	13	0	0	
11	0	0	0	0	0	0	254	2	0	0	
12	0	0	0	0	0	0	295	8	0	0	
13	0	0	0	0	0	0	211	6	0	0	
14	0	0	0	0	0	0	295	8	0	0	
15	0	0	0	0	0	0	255	2	0	0	
0	0	0	0	0	0	0	351	11	0	0	
1	0	0	0	0	0	0	300	9	0	0	
2	0	0	0	0	0	0	448	6	0	0	
3	0	0	0	0	0	0	456	6	0	0	
4	0	0	0	0	0	0	599	23	0	0	
5	0	0	0	0	0	0	587	8	0	0	
6	0	0	0	0	0	0	704	12	0	0	
7	0	0	0	0	0	0	652	10	0	0	
8	0	0	0	0	0	0	717	12	0	0	
9	0	0	0	0	0	0	585	8	0	0	
10	0	0	0	0	0	0	598	23	0	0	
11	0	0	0	0	0	0	440	6	0	0	
12	0	0	0	0	0	0	423	14	0	0	
13	0	0	0	0	0	0	272	3	0	0	
14	0	0	0	0	0	0	263	3	0	0	
15	0	0	0	0	0	0	142	3	0	0	
0	0	0	0	0	0	0	248	2	0	0	
1	0	0	0	0	0	0	230	1	0	0	
2	0	0	0	0	0	0	376	4	0	0	
3	0	0	0	0	0	0	384	12	0	0	
4	0	0	0	0	0	0	519	19	0	0	
5	0	0	0	0	0	0	529	7	0	0	
6	0	0	0	0	0	0	664	11	0	0	
7	0	0	0	0	0	0	635	24	0	0	
8	0	0	0	0	0	0	743	12	0	0	
9	0	0	0	0	0	0	686	11	0	0	
10	0	0	0	0	0	0	752	12	0	0	
11	0	0	0	0	0	0	655	10	0	0	
12	0	0	0	0	0	0	683	28	0	0	
13	0	0	0	0	0	0	537	7	0	0	
14	0	0	0	0	0	0	529	7	0	0	
15	0	0	0	0	0	0	345	11	0	0	
0	0	0	0	0	0	0	344	3	0	0	
1	0	0	0	0	0	0	241	2	0	0	
2	0	0	0	0	0	0	299	8	0	0	
3	0	0	0	0	0	0	207	1	0	0	
4	0	0	0	0	0	0	319	3	0	0	
5	0	0	0	0	0	0	319	3	0	0	
6	0	0	0	0	0	0	436	15	0	0	
7	0	0	0	0	0	0	391	4	0	0	
8	0	0	0	0	0	0	432	6	0	0	
9	0	0	0	0	0	0	249	7	0	0	
10	0	0	0	0	0	0	225	1	0	0	
11	0	0	0	0	0	0	78	0	0	0	
12	0	0	0	0	0	0	60	0	0	0	
13	0	0	0	0	0	0	0	0	0	0	
14	0	0	0	0	0	0	15	0	0	0	
15	0	0	0	0	0	0	0	0	0	0	
0	0	0	0	0	0	0	172	1	0	0	
1	0	0	0	0	0	0	174	1	0	0	
2	0	0	0	0	0	0	291	3	0	0	
3	0	0	0	0	0	0	228	1	0	0	
4	0	0	0	0	0	0	841	15	0	0	
5	0	0	0	0	0	0	609	24	0	0	
6	0	0	0	0	0	0	377	4	0	0	
7	0	0	0	0	0	0	0	0	0	0	
8	0	0	0	0	0	0	0	0	0	0	
9	0	0	0	0	0	0	963	48	0	0	
10	0	0	0	0	0	0	963	19	0	0	
11	0	0	0	0	0	0	963	48	0	0	
12	0	0	0	0	0	0	963	19	0	0	
13	0	0	0	0	0	0	963	19	0	0	
14	0	0	0	0	0	0	963	19	0	0	
15	0	0	0	0	0	0	963	48	0	0	
0	0	0	0	0	0	0	963	48	0	0	
1	0	0	0	0	0	0	963	48	0	0	
2	0	0	0	0	0	0	963	19	0	0	
3	0	0	0	0	0	0	963	19	0	0	
4	0	0	0	0	0	0	963	19	0	0	
5	0	0	0	0	0	0	963	48	0	0	
6	0	0	0	0	0	0	963	19	0	0	
7	0	0	0	0	0	0	963	19	0	0	
8	0	0	0	0	0	0	963	19	0	0	
9	0	0	0	0	0	0	963	19	0	0	
10	0	0	0	0	0	0	963	19	0	0	
11	0	0	0	0	0	0	963	48	0	0	
12	0	0	0	0	0	0	963	19	0	0	
13	0	0	0	0	0	0	884	16	0	0	
14	0	0	0	0	0	0	0	0	0	0	
15	0	0	0	0	0	0	0	0	0	0	
0	0	0	0	0	0	0	11	0	0	0	
1	0	0	0	0	0	0	63	0	0	0	
2	0	0	0	0	0	0	28	0	0	0	
3	0	0	0	0	0	0	0	0	0	0	
4	0	0	0	0	0	0	24	0	0	0	
5	0	0	0	0	0	0	0	0	0	0	
6	0	0	0	0	0	0	31	0	0	0	
7	0	0	0	0	0	0	81	0	0	0	
8	0	0	0	0	0	0	130	0	0	0	
9	0	0	0	0	0	0	184	1	0	0	
10	0	0	0	0	0	0	340	11	0	0	
11	0	0	0	0	0	0	432	6	0	0	
12	0	0	0	0	0	0	668	11	0	0	
13	0	0	0	0	0	0	772	13	0	0	
14	0	0	0	0	0	0	963	48	0	0	
15	0	0	0	0	0	0	963	19	0	0	
0	0	0	0	0	0	0	963	48	0	0	
1	0	0	0	0	0	0	643	9	0	0	
2	0	0	0	0	0	0	0	0	0	0	
3	0	0	0	0	0	0	0	0	0	0	
4	0	0	0	0	0	0	0	0	0	0	
5	0	0	0	0	0	0	0	0	0	0	
6	0	0	0	0	0	0	963	19	0	0	
7	0	0	0	0	0	0	909	17	0	0	
8	0	0	0	0	0	0	423	6	0	0	
9	0	0	0	0	0	0	432	6	0	0	
10	0	0	0	0	0	0	513	19	0	0	
11	0	0	0	0	0	0	467	15	0	0	
12	0	0	0	0	0	0	497	17	0	0	
13	0	0	0	0	0	0	300	8	0	0	
14	0	0	0	0	0	0	243	7	0	0	
15	0	0	0	0	0	0	228	1	0	0	
0	0	0	0	0	0	0	396	4	0	0	
1	0	0	0	0	0	0	536	7	0	0	
2	0	0	0	0	0	0	587	22	0	0	
3	0	0	0	0	0	0	282	7	0	0	
4	0	0	0	0	0	0	0	0	0	0	
5	0	0	0	0	0	0	0	0	0	0	
6	0	0	0	0	0	0	0	0	0	0	
7	0	0	0	0	0	0	0	0	0	0	
8	0	0	0	0	0	0	892	17	0	0	
9	0	0	0	0	0	0	964	19	0	0	
10	0	0	0	0	0	0	963	48	0	0	
11	0	0	0	0	0	0	963	19	0	0	
12	0	0	0	0	0	0	963	48	0	0	
13	0	0	0	0	0	0	964	48	0	0	
14	0	0	0	0	0	0	964	19	0	0	
15	0	0	0	0	0	0	964	19	0	0	
0	0	0	0	0	0	0	964	19	0	0	
1	0	0	0	0	0	0	331	10	0	0	
2	0	0	0	0	0	0	0	0	0	0	
3	0	0	0	0	0	0	0	0	0	0	
4	0	0	0	0	0	0	0	0	0	0	
5	0	0	0	0	0	0	0	0	0	0	
6	0	0	0	0	0	0	0	0	0	0	
7	0	0	0	0	0	0	0	0	0	0	
8	0	0	0	0	0	0	0	0	0	0	
9	0	0	0	0	0	0	0	0	0	0	
10	0	0	0	0	0	0	0	0	0	0	
11	0	0	0	0	0	0	0	0	0	0	
12	0	0	0	0	0	0	0	0	0	0	
13	0	0	0	0	0	0	635	24	0	0	
14	0	0	0	0	0	0	963	48	0	0	
15	0	0	0	0	0	0	963	19	0	0	
0	0	0	0	0	0	0	963	19	0	0	
1	0	0	0	0	0	0	846	15	0	0	
2	0	0	0	0	0	0	652	10	0	0	
3	0	0	0	0	0	0	174	1	0	0	
4	0	0	0	0	0	0	0	0	0	0	
5	0	0	0	0	0	0	0	0	0	0	
6	0	0	0	0	0	0	0	0	0	0	
7	0	0	0	0	0	0	0	0	0	0	
8	0	0	0	0	0	0	0	0	0	0	
9	0	0	0	0	0	0	0	0	0	0	
10	0	0	0	0	0	0	0	0	0	0	
11	0	0	0	0	0	0	0	0	0	0	
12	0	0	0	0	0	0	0	0	0	0	
13	0	0	0	0	0	0	0	0	0	0	
14	0	0	0	0	0	0	963	19	0	0	
15	0	0	0	0	0	0	963	19	0	0	
0	0	0	0	0	0	0	963	19	0	0	
1	0	0	0	0	0	0	963	48	0	0	
2	0	0	0	0	0	0	963	19	0	0	
3	0	0	0	0	0	0	963	19	0	0	
4	0	0	0	0	0	0	963	19	0	0	
5	0	0	0	0	0	0	963	19	0	0	
6	0	0	0	0	0	0	0	0	0	0	
7	0	0	0	0	0	0	0	0	0	0	
8	0	0	0	0	0	0	0	0	0	0	
9	0	0	0	0	0	0	0	0	0	0	
10	0	0	0	0	0	0	0	0	0	0	
11	0	0	0	0	0	0	0	0	0	0	
12	0	0	0	0	0	0	0	0	0	0	
13	0	0	0	0	0	0	0	0	0	0	
14	0	0	0	0	0	0	0	0	0	0	
15	0	0	0	0	0	0	244	2	0	0	
0	0	0	0	0	0	0	963	19	0	0	
1	0	0	0	0	0	0	963	19	0	0	
2	0	0	0	0	0	0	963	48	0	0	
3	0	0	0	0	0	0	963	19	0	0	
4	0	0	0	0	0	0	963	19	0	0	
5	0	0	0	0	0	0	963	48	0	0	
6	0	0	0	0	0	0	343	11	0	0	
7	0	0	0	0	0	0	0	0	0	0	
8	0	0	0	0	0	0	0	0	0	0	
9	0	0	0	0	0	0	0	0	0	0	
10	0	0	0	0	0	0	0	0	0	0	
11	0	0	0	0	0	0	0	0	0	0	
12	0	0	0	0	0	0	0	0	0	0	
13	0	0	0	0	0	0	0	0	0	0	
14	0	0	0	0	0	0	0	0	0	0	
15	0	0	0	0	0	0	0	0	0	0	
0	0	0	0	0	0	0	0	0	0	0	
1	0	0	0	0	0	0	590	23	0	0	
2	0	0	0	0	0	0	963	19	0	0	
3	0	0	0	0	0	0	963	19	0	0	
4	0	0	0	0	0	0	963	48	0	0	
5	0	0	0	0	0	0	963	19	0	0	
6	0	0	0	0	0	0	963	48	0	0	
7	0	0	0	0	0	0	963	19	0	0	
8	0	0	0	0	0	0	372	4	0	0	
9	0	0	0	0	0	0	0	0	0	0	
10	0	0	0	0	0	0	0	0	0	0	
11	0	0	0	0	0	0	0	0	0	0	
12	0	0	0	0	0	0	0	0	0	0	
13	0	0	0	0	0	0	0	0	0	0	
14	0	0	0	0	0	0	0	0	0	0	
15	0	0	0	0	0	0	354	3	0	0	
0	0	0	0	0	0	0	792	14	0	0	
1	0	0	0	0	0	0	643	25	0	0	
2	0	0	0	0	0	0	963	48	0	0	
3	0	0	0	0	0	0	963	19	0	0	
4	0	0	0	0	0	0	963	48	0	0	
5	0	0	0	0	0	0	963	19	0	0	
6	0	0	0	0	0	0	963	19	0	0	
7	0	0	0	0	0	0	963	19	0	0	
8	0	0	0	0	0	0	963	19	0	0	
9	0	0	0	0	0	0	963	19	0	0	
10	0	0	0	0	0	0	963	19	0	0	
11	0	0	0	0	0	0	329	3	0	0	
12	0	0	0	0	0	0	0	0	0	0	
13	0	0	0	0	0	0	0	0	0	0	
14	0	0	0	0	0	0	0	0	0	0	
15	0	0	0	0	0	0	0	0	0	0	
0	0	0	0	0	0	0	0	0	0	0	
1	0	0	0	0	0	0	0	0	0	0	
2	0	0	0	0	0	0	0	0	0	0	
3	0	0	0	0	0	0	0	0	0	0	
4	0	0	0	0	0	0	601	9	0	0	
5	0	0	0	0	0	0	963	19	0	0	
6	0	0	0	0	0	0	963	48	0	0	
7	0	0	0	0	0	0	963	19	0	0	
8	0	0	0	0	0	0	963	48	0	0	
9	0	0	0	0	0	0	963	19	0	0	
10	0	0	0	0	0	0	963	48	0	0	
11	0	0	0	0	0	0	963	19	0	0	
12	0	0	0	0	0	0	963	19	0	0	
13	0	0	0	0	0	0	0	0	0	0	
14	0	0	0	0	0	0	0	0	0	0	
15	0	0	0	0	0	0	0	0	0	0	
0	0	0	0	0	0	0	0	0	0	0	
1	0	0	0	0	0	0	0	0	0	0	
2	0	0	0	0	0	0	0	0	0	0	
3	0	0	0	0	0	0	0	0	0	0	
4	0	0	0	0	0	0	401	14	0	0	
5	0	0	0	0	0	0	883	16	0	0	
6	0	0	0	0	0	0	963	48	0	0	
7	0	0	0	0	0	0	963	19	0	0	
8	0	0	0	0	0	0	963	19	0	0	
9	0	0	0	0	0	0	963	19	0	0	
10	0	0	0	0	0	0	963	19	0	0	
11	0	0	0	0	0	0	963	19	0	0	
12	0	0	0	0	0	0	963	48	0	0	
13	0	0	0	0	0	0	963	19	0	0	
14	0	0	0	0	0	0	963	19	0	0	
15	0	0	0	0	0	0	963	19	0	0	
0	0	0	0	0	0	0	963	19	0	0	
1	0	0	0	0	0	0	963	48	0	0	
2	0	0	0	0	0	0	963	48	0	0	
3	0	0	0	0	0	0	963	48	0	0	
4	0	0	0	0	0	0	963	48	0	0	
5	0	0	0	0	0	0	963	19	0	0	
6	0	0	0	0	0	0	963	19	0	0	
7	0	0	0	0	0	0	478	7	0	0	
8	0	0	0	0	0	0	319	3	0	0	
9	0	0	0	0	0	0	120	0	0	0	
10	0	0	0	0	0	0	0	0	0	0	
11	0	0	0	0	0	0	0	0	0	0	
12	0	0	0	0	0	0	0	0	0	0	
13	0	0	0	0	0	0	1	0	0	0	
14	0	0	0	0	0	0	371	12	0	0	
15	0	0	0	0	0	0	402	5	0	0	
0	0	0	0	0	0	0	688	11	0	0	
1	0	0	0	0	0	0	902	43	0	0	
2	0	0	0	0	0	0	963	19	0	0	
3	0	0	0	0	0	0	963	48	0	0	
4	0	0	0	0	0	0	963	48	0	0	
5	0	0	0	0	0	0	963	19	0	0	
6	0	0	0	0	0	0	963	19	0	0	
7	0	0	0	0	0	0	963	48	0	0	
8	0	0	0	0	0	0	963	19	0	0	
9	0	0	0	0	0	0	963	19	0	0	
10	0	0	0	0	0	0	963	48	0	0	
11	0	0	0	0	0	0	963	48	0	0	
12	0	0	0	0	0	0	963	48	0	0	
13	0	0	0	0	0	0	841	15	0	0	
14	0	0	0	0	0	0	704	28	0	0	
15	0	0	0	0	0	0	664	27	0	0	
0	0	0	0	0	0	0	665	27	0	0	
1	0	0	0	0	0	0	587	22	0	0	
2	0	0	0	0	0	0	620	9	0	0	
3	0	0	0	0	0	0	545	7	0	0	
4	0	0	0	0	0	0	604	23	0	0	
5	0	0	0	0	0	0	540	19	0	0	
6	0	0	0	0	0	0	611	9	0	0	
7	0	0	0	0	0	0	561	7	0	0	
8	0	0	0	0	0	0	630	9	0	0	
9	0	0	0	0	0	0	536	7	0	0	
10	0	0	0	0	0	0	574	7	0	0	
11	0	0	0	0	0	0	444	15	0	0	
12	0	0	0	0	0	0	417	5	0	0	
13	0	0	0	0	0	0	231	1	0	0	
14	0	0	0	0	0	0	154	0	0	0	
15	0	0	0	0	0	0	0	0	0	0	
0	0	0	0	0	0	0	0	0	0	0	
1	0	0	0	0	0	0	0	0	0	0	
2	0	0	0	0	0	0	0	0	0	0	
3	0	0	0	0	0	0	0	0	0	0	
4	0	0	0	0	0	0	0	0	0	0	
5	0	0	0	0	0	0	0	0	0	0	
6	0	0	0	0	0	0	0	0	0	0	
7	0	0	0	0	0	0	0	0	0	0	
8	0	0	0	0	0	0	0	0	0	0	
9	0	0	0	0	0	0	119	0	0	0	
10	0	0	0	0	0	0	481	17	0	0	
11	0	0	0	0	0	0	444	8	0	0	
12	0	0	0	0	0	0	691	28	0	0	
13	0	0	0	0	0	0	756	13	0	0	
14	0	0	0	0	0	0	877	16	0	0	
15	0	0	0	0	0	0	822	15	0	0	
0	0	0	0	0	0	0	924	44	0	0	
1	0	0	0	0	0	0	886	16	0	0	
2	0	0	0	0	0	0	963	19	0	0	
3	0	0	0	0	0	0	950	47	0	0	
4	0	0	0	0	0	0	963	19	0	0	
5	0	0	0	0	0	0	963	19	0	0	
6	0	0	0	0	0	0	963	19	0	0	
7	0	0	0	0	0	0	963	19	0	0	
8	0	0	0	0	0	0	963	48	0	0	
9	0	0	0	0	0	0	963	19	0	0	
10	0	0	0	0	0	0	963	19	0	0	
11	0	0	0	0	0	0	963	19	0	0	
12	0	0	0	0	0	0	963	19	0	0	
13	0	0	0	0	0	0	963	48	0	0	
14	0	0	0	0	0	0	963	19	0	0	
15	0	0	0	0	0	0	963	48	0	0	
0	0	0	0	0	0	0	963	48	0	0	
1	0	0	0	0	0	0	963	48	0	0	
2	0	0	0	0	0	0	963	19	0	0	
3	0	0	0	0	0	0	963	19	0	0	
4	0	0	0	0	0	0	963	19	0	0	
5	0	0	0	0	0	0	963	19	0	0	
6	0	0	0	0	0	0	782	14	0	0	
7	0	0	0	0	0	0	635	24	0	0	
8	0	0	0	0	0	0	748	12	0	0	
9	0	0	0	0	0	0	647	10	0	0	
10	0	0	0	0	0	0	736	12	0	0	
11	0	0	0	0	0	0	683	28	0	0	
12	0	0	0	0	0	0	806	35	0	0	
13	0	0	0	0	0	0	782	14	0	0	
14	0	0	0	0	0	0	905	17	0	0	
15	0	0	0	0	0	0	888	17	0	0	
0	0	0	0	0	0	0	963	48	0	0	
1	0	0	0	0	0	0	963	19	0	0	
2	0	0	0	0	0	0	963	48	0	0	
3	0	0	0	0	0	0	963	48	0	0	
4	0	0	0	0	0	0	963	19	0	0	
5	0	0	0	0	0	0	963	48	0	0	
6	0	0	0	0	0	0	963	48	0	0	
7	0	0	0	0	0	0	963	19	0	0	
8	0	0	0	0	0	0	963	48	0	0	
9	0	0	0	0	0	0	963	48	0	0	
10	0	0	0	0	0	0	963	19	0	0	
11	0	0	0	0	0	0	963	19	0	0	
12	0	0	0	0	0	0	963	19	0	0	
13	0	0	0	0	0	0	963	19	0	0	
14	0	0	0	0	0	0	963	19	0	0	
15	0	0	0	0	0	0	963	48	0	0	
0	0	0	0	0	0	0	963	19	0	0	
1	0	0	0	0	0	0	963	48	0	0	
2	0	0	0	0	0	0	963	48	0	0	
3	0	0	0	0	0	0	963	19	0	0	
4	0	0	0	0	0	0	963	48	0	0	
5	0	0	0	0	0	0	963	48	0	0	
6	0	0	0	0	0	0	963	48	0	0	
7	0	0	0	0	0	0	963	19	0	0	
8	0	0	0	0	0	0	828	36	0	0	
9	0	0	0	0	0	0	639	25	0	0	
10	0	0	0	0	0	0	647	9	0	0	
11	0	0	0	0	0	0	483	7	0	0	
12	0	0	0	0	0	0	502	7	0	0	
13	0	0	0	0	0	0	372	12	0	0	
14	0	0	0	0	0	0	384	12	0	0	
15	0	0	0	0	0	0	297	8	0	0	
0	0	0	0	0	0	0	371	4	0	0	
1	0	0	0	0	0	0	334	11	0	0	
2	0	0	0	0	0	0	439	6	0	0	
3	0	0	0	0	0	0	445	6	0	0	
4	0	0	0	0	0	0	617	9	0	0	
5	0	0	0	0	0	0	625	24	0	0	
6	0	0	0	0	0	0	795	14	0	0	
7	0	0	0	0	0	0	807	14	0	0	
8	0	0	0	0	0	0	929	44	0	0	
9	0	0	0	0	0	0	883	41	0	0	
10	0	0	0	0	0	0	963	19	0	0	
11	0	0	0	0	0	0	948	19	0	0	
12	0	0	0	0	0	0	963	48	0	0	
13	0	0	0	0	0	0	921	18	0	0	
14	0	0	0	0	0	0	963	19	0	0	
15	0	0	0	0	0	0	920	17	0	0	
0	0	0	0	0	0	0	963	19	0	0	
1	0	0	0	0	0	0	958	19	0	0	
2	0	0	0	0	0	0	963	19	0	0	
3	0	0	0	0	0	0	963	48	0	0	
4	0	0	0	0	0	0	963	19	0	0	
5	0	0	0	0	0	0	963	19	0	0	
6	0	0	0	0	0	0	963	48	0	0	
7	0	0	0	0	0	0	963	19	0	0	
8	0	0	0	0	0	0	963	19	0	0	
9	0	0	0	0	0	0	963	48	0	0	
10	0	0	0	0	0	0	963	19	0	0	
11	0	0	0	0	0	0	799	14	0	0	
12	0	0	0	0	0	0	706	12	0	0	
13	0	0	0	0	0	0	595	8	0	0	
14	0	0	0	0	0	0	530	7	0	0	
15	0	0	0	0	0	0	356	3	0	0	
0	0	0	0	0	0	0	347	3	0	0	
1	0	0	0	0	0	0	238	7	0	0	
2	0	0	0	0	0	0	279	3	0	0	
3	0	0	0	0	0	0	222	1	0	0	
4	0	0	0	0	0	0	290	7	0	0	
5	0	0	0	0	0	0	288	3	0	0	
6	0	0	0	0	0	0	396	13	0	0	
7	0	0	0	0	0	0	406	5	0	0	
8	0	0	0	0	0	0	559	7	0	0	
9	0	0	0	0	0	0	519	7	0	0	
10	0	0	0	0	0	0	659	11	0	0	
11	0	0	0	0	0	0	632	9	0	0	
12	0	0	0	0	0	0	734	12	0	0	
13	0	0	0	0	0	0	681	11	0	0	
14	0	0	0	0	0	0	768	13	0	0	
15	0	0	0	0	0	0	667	27	0	0	
0	0	0	0	0	0	0	700	12	0	0	
1	0	0	0	0	0	0	584	22	0	0	
2	0	0	0	0	0	0	600	23	0	0	
3	0	0	0	0	0	0	486	7	0	0	
4	0	0	0	0	0	0	532	7	0	0	
5	0	0	0	0	0	0	481	7	0	0	
6	0	0	0	0	0	0	613	9	0	0	
7	0	0	0	0	0	0	624	24	0	0	
8	0	0	0	0	0	0	764	13	0	0	
9	0	0	0	0	0	0	755	13	0	0	
10	0	0	0	0	0	0	897	17	0	0	
11	0	0	0	0	0	0	864	39	0	0	
12	0	0	0	0	0	0	963	19	0	0	
13	0	0	0	0	0	0	918	17	0	0	
14	0	0	0	0	0	0	963	19	0	0	
15	0	0	0	0	0	0	892	41	0	0	
0	0	0	0	0	0	0	924	18	0	0	
1	0	0	0	0	0	0	768	32	0	0	
2	0	0	0	0	0	0	739	12	0	0	
3	0	0	0	0	0	0	527	7	0	0	
4	0	0	0	0	0	0	468	16	0	0	
5	0	0	0	0	0	0	264	3	0	0	
6	0	0	0	0	0	0	259	2	0	0	
7	0	0	0	0	0	0	97	1	0	0	
8	0	0	0	0	0	0	157	0	0	0	
9	0	0	0	0	0	0	96	0	0	0	
10	0	0	0	0	0	0	217	1	0	0	
11	0	0	0	0	0	0	117	0	0	0	
12	0	0	0	0	0	0	263	3	0	0	
13	0	0	0	0	0	0	340	11	0	0	
14	0	0	0	0	0	0	478	7	0	0	
15	0	0	0	0	0	0	483	7	0	0	
0	0	0	0	0	0	0	646	9	0	0	
1	0	0	0	0	0	0	636	9	0	0	
2	0	0	0	0	0	0	746	31	0	0	
3	0	0	0	0	0	0	660	11	0	0	
4	0	0	0	0	0	0	711	29	0	0	
5	0	0	0	0	0	0	579	7	0	0	
6	0	0	0	0	0	0	595	8	0	0	
7	0	0	0	0	0	0	505	7	0	0	
8	0	0	0	0	0	0	543	7	0	0	
9	0	0	0	0	0	0	492	7	0	0	
10	0	0	0	0	0	0	560	7	0	0	
11	0	0	0	0	0	0	508	7	0	0	
12	0	0	0	0	0	0	655	25	0	0	
13	0	0	0	0	0	0	655	10	0	0	
14	0	0	0	0	0	0	796	35	0	0	
15	0	0	0	0	0	0	807	35	0	0	
0	0	0	0	0	0	0	931	18	0	0	
1	0	0	0	0	0	0	900	17	0	0	
2	0	0	0	0	0	0	963	19	0	0	
3	0	0	0	0	0	0	963	48	0	0	
4	0	0	0	0	0	0	963	19	0	0	
5	0	0	0	0	0	0	942	19	0	0	
6	0	0	0	0	0	0	963	19	0	0	
7	0	0	0	0	0	0	963	19	0	0	
8	0	0	0	0	0	0	910	43	0	0	
9	0	0	0	0	0	0	460	6	0	0	
10	0	0	0	0	0	0	524	19	0	0	
11	0	0	0	0	0	0	384	4	0	0	
12	0	0	0	0	0	0	364	4	0	0	
13	0	0	0	0	0	0	263	3	0	0	
14	0	0	0	0	0	0	327	3	0	0	
15	0	0	0	0	0	0	304	3	0	0	
0	0	0	0	0	0	0	521	19	0	0	
1	0	0	0	0	0	0	486	17	0	0	
2	0	0	0	0	0	0	595	23	0	0	
3	0	0	0	0	0	0	547	7	0	0	
4	0	0	0	0	0	0	705	28	0	0	
5	0	0	0	0	0	0	692	11	0	0	
6	0	0	0	0	0	0	771	13	0	0	
7	0	0	0	0	0	0	728	12	0	0	
8	0	0	0	0	0	0	742	12	0	0	
9	0	0	0	0	0	0	569	7	0	0	
10	0	0	0	0	0	0	604	9	0	0	
11	0	0	0	0	0	0	455	6	0	0	
12	0	0	0	0	0	0	495	17	0	0	
13	0	0	0	0	0	0	369	4	0	0	
14	0	0	0	0	0	0	452	6	0	0	
15	0	0	0	0	0	0	467	15	0	0	
0	0	0	0	0	0	0	615	24	0	0	
1	0	0	0	0	0	0	600	9	0	0	
2	0	0	0	0	0	0	732	31	0	0	
3	0	0	0	0	0	0	710	29	0	0	
4	0	0	0	0	0	0	876	16	0	0	
5	0	0	0	0	0	0	853	15	0	0	
6	0	0	0	0	0	0	963	19	0	0	
7	0	0	0	0	0	0	963	19	0	0	
8	0	0	0	0	0	0	963	48	0	0	
9	0	0	0	0	0	0	963	19	0	0	
10	0	0	0	0	0	0	963	19	0	0	
11	0	0	0	0	0	0	829	15	0	0	
12	0	0	0	0	0	0	751	12	0	0	
13	0	0	0	0	0	0	606	24	0	0	
14	0	0	0	0	0	0	615	9	0	0	
15	0	0	0	0	0	0	465	6	0	0	
0	0	0	0	0	0	0	449	15	0	0	
1	0	0	0	0	0	0	363	4	0	0	
2	0	0	0	0	0	0	428	6	0	0	
3	0	0	0	0	0	0	351	3	0	0	
4	0	0	0	0	0	0	499	17	0	0	
5	0	0	0	0	0	0	449	15	0	0	
6	0	0	0	0	0	0	579	7	0	0	
7	0	0	0	0	0	0	564	7	0	0	
8	0	0	0	0	0	0	704	12	0	0	
9	0	0	0	0	0	0	664	27	0	0	
10	0	0	0	0	0	0	730	30	0	0	
11	0	0	0	0	0	0	679	28	0	0	
12	0	0	0	0	0	0	724	12	0	0	
13	0	0	0	0	0	0	574	7	0	0	
14	0	0	0	0	0	0	611	24	0	0	
15	0	0	0	0	0	0	489	17	0	0	
0	0	0	0	0	0	0	523	7	0	0	
1	0	0	0	0	0	0	409	5	0	0	
2	0	0	0	0	0	0	455	6	0	0	
3	0	0	0	0	0	0	391	13	0	0	
4	0	0	0	0	0	0	497	7	0	0	
5	0	0	0	0	0	0	462	15	0	0	
6	0	0	0	0	0	0	579	22	0	0	
7	0	0	0	0	0	0	583	7	0	0	
8	0	0	0	0	0	0	707	12	0	0	
9	0	0	0	0	0	0	705	28	0	0	
10	0	0	0	0	0	0	835	38	0	0	
11	0	0	0	0	0	0	787	14	0	0	
12	0	0	0	0	0	0	900	17	0	0	
13	0	0	0	0	0	0	822	15	0	0	
14	0	0	0	0	0	0	862	15	0	0	
15	0	0	0	0	0	0	734	12	0	0	
0	0	0	0	0	0	0	745	12	0	0	
1	0	0	0	0	0	0	583	22	0	0	
2	0	0	0	0	0	0	590	8	0	0	
3	0	0	0	0	0	0	460	15	0	0	
4	0	0	0	0	0	0	475	7	0	0	
5	0	0	0	0	0	0	348	3	0	0	
6	0	0	0	0	0	0	525	7	0	0	
7	0	0	0	0	0	0	563	7	0	0	
8	0	0	0	0	0	0	761	31	0	0	
9	0	0	0	0	0	0	519	7	0	0	
10	0	0	0	0	0	0	551	7	0	0	
11	0	0	0	0	0	0	539	7	0	0	
12	0	0	0	0	0	0	632	9	0	0	
13	0	0	0	0	0	0	595	23	0	0	
14	0	0	0	0	0	0	686	11	0	0	
15	0	0	0	0	0	0	568	7	0	0	
0	0	0	0	0	0	0	624	24	0	0	
1	0	0	0	0	0	0	543	7	0	0	
2	0	0	0	0	0	0	559	20	0	0	
3	0	0	0	0	0	0	423	14	0	0	
4	0	0	0	0	0	0	470	6	0	0	
5	0	0	0	0	0	0	393	4	0	0	
6	0	0	0	0	0	0	480	16	0	0	
7	0	0	0	0	0	0	423	14	0	0	
8	0	0	0	0	0	0	536	7	0	0	
9	0	0	0	0	0	0	478	7	0	0	
10	0	0	0	0	0	0	578	22	0	0	
11	0	0	0	0	0	0	548	7	0	0	
12	0	0	0	0	0	0	667	11	0	0	
13	0	0	0	0	0	0	625	9	0	0	
14	0	0	0	0	0	0	750	31	0	0	
15	0	0	0	0	0	0	700	12	0	0	
0	0	0	0	0	0	0	783	14	0	0	
1	0	0	0	0	0	0	721	12	0	0	
2	0	0	0	0	0	0	787	34	0	0	
3	0	0	0	0	0	0	636	9	0	0	
4	0	0	0	0	0	0	647	25	0	0	
5	0	0	0	0	0	0	474	7	0	0	
6	0	0	0	0	0	0	489	7	0	0	
7	0	0	0	0	0	0	396	4	0	0	
8	0	0	0	0	0	0	427	6	0	0	
9	0	0	0	0	0	0	366	12	0	0	
10	0	0	0	0	0	0	457	15	0	0	
11	0	0	0	0	0	0	415	5	0	0	
12	0	0	0	0	0	0	510	18	0	0	
13	0	0	0	0	0	0	483	7	0	0	
14	0	0	0	0	0	0	587	8	0	0	
15	0	0	0	0	0	0	568	7	0	0	
0	0	0	0	0	0	0	671	11	0	0	
1	0	0	0	0	0	0	662	26	0	0	
2	0	0	0	0	0	0	752	12	0	0	
3	0	0	0	0	0	0	652	10	0	0	
4	0	0	0	0	0	0	691	11	0	0	
5	0	0	0	0	0	0	548	7	0	0	
6	0	0	0	0	0	0	560	20	0	0	
7	0	0	0	0	0	0	440	15	0	0	
8	0	0	0	0	0	0	480	7	0	0	
9	0	0	0	0	0	0	411	14	0	0	
10	0	0	0	0	0	0	443	15	0	0	
11	0	0	0	0	0	0	398	13	0	0	
12	0	0	0	0	0	0	467	15	0	0	
13	0	0	0	0	0	0	438	6	0	0	
14	0	0	0	0	0	0	553	7	0	0	
15	0	0	0	0	0	0	519	7	0	0	
0	0	0	0	0	0	0	664	11	0	0	
1	0	0	0	0	0	0	615	9	0	0	
2	0	0	0	0	0	0	740	12	0	0	
3	0	0	0	0	0	0	703	28	0	0	
4	0	0	0	0	0	0	787	34	0	0	
5	0	0	0	0	0	0	711	29	0	0	
6	0	0	0	0	0	0	743	12	0	0	
7	0	0	0	0	0	0	593	8	0	0	
8	0	0	0	0	0	0	617	9	0	0	
9	0	0	0	0	0	0	488	7	0	0	
10	0	0	0	0	0	0	508	18	0	0	
11	0	0	0	0	0	0	360	3	0	0	
12	0	0	0	0	0	0	438	6	0	0	
13	0	0	0	0	0	0	376	4	0	0	
14	0	0	0	0	0	0	503	7	0	0	
15	0	0	0	0	0	0	408	14	0	0	
0	0	0	0	0	0	0	512	7	0	0	
1	0	0	0	0	0	0	472	7	0	0	
2	0	0	0	0	0	0	547	19	0	0	
3	0	0	0	0	0	0	540	7	0	0	
4	0	0	0	0	0	0	668	27	0	0	
5	0	0	0	0	0	0	593	8	0	0	
6	0	0	0	0	0	0	676	27	0	0	
7	0	0	0	0	0	0	569	7	0	0	
8	0	0	0	0	0	0	571	7	0	0	
9	0	0	0	0	0	0	499	7	0	0	
10	0	0	0	0	0	0	632	24	0	0	
11	0	0	0	0	0	0	620	24	0	0	
12	0	0	0	0	0	0	511	18	0	0	
13	0	0	0	0	0	0	310	3	0	0	
14	0	0	0	0	0	0	519	7	0	0	
15	0	0	0	0	0	0	536	19	0	0	
0	0	0	0	0	0	0	614	9	0	0	
1	0	0	0	0	0	0	574	7	0	0	
2	0	0	0	0	0	0	684	11	0	0	
3	0	0	0	0	0	0	647	25	0	0	
4	0	0	0	0	0	0	768	13	0	0	
5	0	0	0	0	0	0	723	12	0	0	
6	0	0	0	0	0	0	838	15	0	0	
7	0	0	0	0	0	0	766	32	0	0	
8	0	0	0	0	0	0	857	15	0	0	
9	0	0	0	0	0	0	766	32	0	0	
10	0	0	0	0	0	0	775	13	0	0	
11	0	0	0	0	0	0	625	9	0	0	
12	0	0	0	0	0	0	646	9	0	0	
13	0	0	0	0	0	0	513	19	0	0	
14	0	0	0	0	0	0	530	7	0	0	
15	0	0	0	0	0	0	408	5	0	0	
0	0	0	0	0	0	0	492	17	0	0	
1	0	0	0	0	0	0	428	6	0	0	
2	0	0	0	0	0	0	519	7	0	0	
3	0	0	0	0	0	0	481	7	0	0	
4	0	0	0	0	0	0	597	8	0	0	
5	0	0	0	0	0	0	560	7	0	0	
6	0	0	0	0	0	0	673	11	0	0	
7	0	0	0	0	0	0	611	9	0	0	
8	0	0	0	0	0	0	721	12	0	0	
9	0	0	0	0	0	0	659	26	0	0	
10	0	0	0	0	0	0	747	12	0	0	
11	0	0	0	0	0	0	632	9	0	0	
12	0	0	0	0	0	0	649	25	0	0	
13	0	0	0	0	0	0	481	7	0	0	
14	0	0	0	0	0	0	483	17	0	0	
15	0	0	0	0	0	0	359	4	0	0	
0	0	0	0	0	0	0	409	14	0	0	
1	0	0	0	0	0	0	307	3	0	0	
2	0	0	0	0	0	0	406	14	0	0	
3	0	0	0	0	0	0	361	4	0	0	
4	0	0	0	0	0	0	457	6	0	0	
5	0	0	0	0	0	0	416	5	0	0	
6	0	0	0	0	0	0	541	7	0	0	
7	0	0	0	0	0	0	524	7	0	0	
8	0	0	0	0	0	0	655	10	0	0	
9	0	0	0	0	0	0	657	10	0	0	
10	0	0	0	0	0	0	787	34	0	0	
11	0	0	0	0	0	0	711	12	0	0	
12	0	0	0	0	0	0	780	14	0	0	
13	0	0	0	0	0	0	659	11	0	0	
14	0	0	0	0	0	0	655	25	0	0	
15	0	0	0	0	0	0	478	16	0	0	
0	0	0	0	0	0	0	488	7	0	0	
1	0	0	0	0	0	0	343	11	0	0	
2	0	0	0	0	0	0	358	3	0	0	
3	0	0	0	0	0	0	294	3	0	0	
4	0	0	0	0	0	0	352	3	0	0	
5	0	0	0	0	0	0	288	7	0	0	
6	0	0	0	0	0	0	372	4	0	0	
7	0	0	0	0	0	0	335	11	0	0	
8	0	0	0	0	0	0	441	15	0	0	
9	0	0	0	0	0	0	452	6	0	0	
10	0	0	0	0	0	0	560	7	0	0	
11	0	0	0	0	0	0	537	19	0	0	
12	0	0	0	0	0	0	696	12	0	0	
13	0	0	0	0	0	0	646	9	0	0	
14	0	0	0	0	0	0	726	12	0	0	
15	0	0	0	0	0	0	632	24	0	0	
0	0	0	0	0	0	0	675	27	0	0	
1	0	0	0	0	0	0	534	19	0	0	
2	0	0	0	0	0	0	560	20	0	0	
3	0	0	0	0	0	0	432	15	0	0	
4	0	0	0	0	0	0	569	7	0	0	
5	0	0	0	0	0	0	590	23	0	0	
6	0	0	0	0	0	0	501	7	0	0	
7	0	0	0	0	0	0	316	3	0	0	
8	0	0	0	0	0	0	454	15	0	0	
9	0	0	0	0	0	0	425	14	0	0	
10	0	0	0	0	0	0	536	7	0	0	
11	0	0	0	0	0	0	519	7	0	0	
12	0	0	0	0	0	0	646	9	0	0	
13	0	0	0	0	0	0	624	9	0	0	
14	0	0	0	0	0	0	724	12	0	0	
15	0	0	0	0	0	0	678	27	0	0	
0	0	0	0	0	0	0	732	12	0	0	
1	0	0	0	0	0	0	621	24	0	0	
2	0	0	0	0	0	0	663	26	0	0	
3	0	0	0	0	0	0	529	19	0	0	
4	0	0	0	0	0	0	559	20	0	0	
5	0	0	0	0	0	0	433	6	0	0	
6	0	0	0	0	0	0	465	6	0	0	
7	0	0	0	0	0	0	371	4	0	0	
8	0	0	0	0	0	0	472	16	0	0	
9	0	0	0	0	0	0	391	13	0	0	
10	0	0	0	0	0	0	487	7	0	0	
11	0	0	0	0	0	0	448	6	0	0	
12	0	0	0	0	0	0	560	20	0	0	
13	0	0	0	0	0	0	519	7	0	0	
14	0	0	0	0	0	0	630	9	0	0	
15	0	0	0	0	0	0	614	9	0	0	
0	0	0	0	0	0	0	739	12	0	0	
1	0	0	0	0	0	0	651	10	0	0	
2	0	0	0	0	0	0	713	30	0	0	
3	0	0	0	0	0	0	625	9	0	0	
4	0	0	0	0	0	0	662	11	0	0	
5	0	0	0	0	0	0	543	19	0	0	
6	0	0	0	0	0	0	588	8	0	0	
7	0	0	0	0	0	0	480	7	0	0	
8	0	0	0	0	0	0	504	7	0	0	
9	0	0	0	0	0	0	383	4	0	0	
10	0	0	0	0	0	0	451	6	0	0	
11	0	0	0	0	0	0	419	6	0	0	
12	0	0	0	0	0	0	546	7	0	0	
13	0	0	0	0	0	0	539	7	0	0	
14	0	0	0	0	0	0	675	11	0	0	
15	0	0	0	0	0	0	639	25	0	0	
0	0	0	0	0	0	0	728	12	0	0	
1	0	0	0	0	0	0	653	10	0	0	
2	0	0	0	0	0	0	752	12	0	0	
3	0	0	0	0	0	0	676	11	0	0	
4	0	0	0	0	0	0	736	12	0	0	
5	0	0	0	0	0	0	616	9	0	0	
6	0	0	0	0	0	0	645	25	0	0	
7	0	0	0	0	0	0	551	7	0	0	
8	0	0	0	0	0	0	595	8	0	0	
9	0	0	0	0	0	0	515	7	0	0	
10	0	0	0	0	0	0	567	21	0	0	
11	0	0	0	0	0	0	471	16	0	0	
12	0	0	0	0	0	0	540	7	0	0	
13	0	0	0	0	0	0	460	6	0	0	
14	0	0	0	0	0	0	542	7	0	0	
15	0	0	0	0	0	0	492	7	0	0	
0	0	0	0	0	0	0	591	8	0	0	
1	0	0	0	0	0	0	528	7	0	0	
2	0	0	0	0	0	0	636	24	0	0	
3	0	0	0	0	0	0	582	7	0	0	
4	0	0	0	0	0	0	667	11	0	0	
5	0	0	0	0	0	0	595	23	0	0	
6	0	0	0	0	0	0	676	27	0	0	
7	0	0	0	0	0	0	579	7	0	0	
8	0	0	0	0	0	0	600	23	0	0	
9	0	0	0	0	0	0	499	7	0	0	
10	0	0	0	0	0	0	534	7	0	0	
11	0	0	0	0	0	0	453	6	0	0	
12	0	0	0	0	0	0	515	19	0	0	
13	0	0	0	0	0	0	480	7	0	0	
14	0	0	0	0	0	0	577	22	0	0	
15	0	0	0	0	0	0	512	7	0	0	
0	0	0	0	0	0	0	659	11	0	0	
1	0	0	0	0	0	0	724	12	0	0	
2	0	0	0	0	0	0	880	16	0	0	
3	0	0	0	0	0	0	604	9	0	0	
4	0	0	0	0	0	0	659	11	0	0	
5	0	0	0	0	0	0	639	9	0	0	
6	0	0	0	0	0	0	716	12	0	0	
7	0	0	0	0	0	0	615	9	0	0	
8	0	0	0	0	0	0	642	9	0	0	
9	0	0	0	0	0	0	519	7	0	0	
10	0	0	0	0	0	0	592	8	0	0	
11	0	0	0	0	0	0	504	17	0	0	
12	0	0	0	0	0	0	497	7	0	0	
13	0	0	0	0	0	0	389	4	0	0	
14	0	0	0	0	0	0	452	6	0	0	
15	0	0	0	0	0	0	382	12	0	0	
0	0	0	0	0	0	0	518	19	0	0	
1	0	0	0	0	0	0	457	15	0	0	
2	0	0	0	0	0	0	568	21	0	0	
3	0	0	0	0	0	0	539	7	0	0	
4	0	0	0	0	0	0	622	9	0	0	
5	0	0	0	0	0	0	556	7	0	0	
6	0	0	0	0	0	0	627	9	0	0	
7	0	0	0	0	0	0	577	22	0	0	
8	0	0	0	0	0	0	684	11	0	0	
9	0	0	0	0	0	0	625	24	0	0	
10	0	0	0	0	0	0	680	11	0	0	
11	0	0	0	0	0	0	543	19	0	0	
12	0	0	0	0	0	0	582	7	0	0	
13	0	0	0	0	0	0	463	6	0	0	
14	0	0	0	0	0	0	479	7	0	0	
15	0	0	0	0	0	0	384	4	0	0	
0	0	0	0	0	0	0	460	15	0	0	
1	0	0	0	0	0	0	399	4	0	0	
2	0	0	0	0	0	0	522	7	0	0	
3	0	0	0	0	0	0	487	17	0	0	
4	0	0	0	0	0	0	612	24	0	0	
5	0	0	0	0	0	0	567	7	0	0	
6	0	0	0	0	0	0	678	11	0	0	
7	0	0	0	0	0	0	639	9	0	0	
8	0	0	0	0	0	0	768	13	0	0	
9	0	0	0	0	0	0	710	12	0	0	
10	0	0	0	0	0	0	799	14	0	0	
11	0	0	0	0	0	0	698	28	0	0	
12	0	0	0	0	0	0	752	31	0	0	
13	0	0	0	0	0	0	606	9	0	0	
14	0	0	0	0	0	0	604	9	0	0	
15	0	0	0	0	0	0	487	7	0	0	
0	0	0	0	0	0	0	507	7	0	0	
1	0	0	0	0	0	0	403	4	0	0	
2	0	0	0	0	0	0	452	6	0	0	
3	0	0	0	0	0	0	382	4	0	0	
4	0	0	0	0	0	0	481	7	0	0	
5	0	0	0	0	0	0	466	15	0	0	
6	0	0	0	0	0	0	585	7	0	0	
7	0	0	0	0	0	0	537	7	0	0	
8	0	0	0	0	0	0	647	9	0	0	
9	0	0	0	0	0	0	617	9	0	0	
10	0	0	0	0	0	0	710	29	0	0	
11	0	0	0	0	0	0	647	9	0	0	
12	0	0	0	0	0	0	735	12	0	0	
13	0	0	0	0	0	0	620	24	0	0	
14	0	0	0	0	0	0	649	25	0	0	
15	0	0	0	0	0	0	507	18	0	0	
0	0	0	0	0	0	0	552	7	0	0	
1	0	0	0	0	0	0	435	6	0	0	
2	0	0	0	0	0	0	480	7	0	0	
3	0	0	0	0	0	0	388	12	0	0	
4	0	0	0	0	0	0	417	5	0	0	
5	0	0	0	0	0	0	310	3	0	0	
6	0	0	0	0	0	0	441	6	0	0	
7	0	0	0	0	0	0	401	4	0	0	
8	0	0	0	0	0	0	484	7	0	0	
9	0	0	0	0	0	0	445	15	0	0	
10	0	0	0	0	0	0	550	20	0	0	
11	0	0	0	0	0	0	518	7	0	0	
12	0	0	0	0	0	0	630	9	0	0	
13	0	0	0	0	0	0	615	9	0	0	
14	0	0	0	0	0	0	839	15	0	0	
15	0	0	0	0	0	0	871	16	0	0	
0	0	0	0	0	0	0	739	31	0	0	
1	0	0	0	0	0	0	498	7	0	0	
2	0	0	0	0	0	0	574	22	0	0	
3	0	0	0	0	0	0	447	6	0	0	
4	0	0	0	0	0	0	481	17	0	0	
5	0	0	0	0	0	0	347	11	0	0	
6	0	0	0	0	0	0	422	6	0	0	
7	0	0	0	0	0	0	393	4	0	0	
8	0	0	0	0	0	0	515	7	0	0	
9	0	0	0	0	0	0	476	7	0	0	
10	0	0	0	0	0	0	551	20	0	0	
11	0	0	0	0	0	0	489	7	0	0	
12	0	0	0	0	0	0	608	9	0	0	
13	0	0	0	0	0	0	571	7	0	0	
14	0	0	0	0	0	0	679	11	0	0	
15	0	0	0	0	0	0	615	9	0	0	
0	0	0	0	0	0	0	688	11	0	0	
1	0	0	0	0	0	0	575	22	0	0	
2	0	0	0	0	0	0	615	9	0	0	
3	0	0	0	0	0	0	489	7	0	0	
4	0	0	0	0	0	0	519	7	0	0	
5	0	0	0	0	0	0	401	5	0	0	
6	0	0	0	0	0	0	455	6	0	0	
7	0	0	0	0	0	0	339	3	0	0	
8	0	0	0	0	0	0	430	15	0	0	
9	0	0	0	0	0	0	374	4	0	0	
10	0	0	0	0	0	0	461	15	0	0	
11	0	0	0	0	0	0	419	14	0	0	
12	0	0	0	0	0	0	536	19	0	0	
13	0	0	0	0	0	0	491	7	0	0	
14	0	0	0	0	0	0	627	9	0	0	
15	0	0	0	0	0	0	616	24	0	0	
0	0	0	0	0	0	0	719	12	0	0	
1	0	0	0	0	0	0	652	10	0	0	
2	0	0	0	0	0	0	711	12	0	0	
3	0	0	0	0	0	0	619	9	0	0	
4	0	0	0	0	0	0	654	10	0	0	
5	0	0	0	0	0	0	529	7	0	0	
6	0	0	0	0	0	0	573	7	0	0	
7	0	0	0	0	0	0	457	6	0	0	
8	0	0	0	0	0	0	508	18	0	0	
9	0	0	0	0	0	0	403	5	0	0	
10	0	0	0	0	0	0	425	6	0	0	
11	0	0	0	0	0	0	339	3	0	0	
12	0	0	0	0	0	0	433	15	0	0	
13	0	0	0	0	0	0	369	12	0	0	
14	0	0	0	0	0	0	511	7	0	0	
15	0	0	0	0	0	0	517	19	0	0	
0	0	0	0	0	0	0	636	24	0	0	
1	0	0	0	0	0	0	596	8	0	0	
2	0	0	0	0	0	0	707	12	0	0	
3	0	0	0	0	0	0	675	27	0	0	
4	0	0	0	0	0	0	779	14	0	0	
5	0	0	0	0	0	0	679	28	0	0	
6	0	0	0	0	0	0	736	12	0	0	
7	0	0	0	0	0	0	633	24	0	0	
8	0	0	0	0	0	0	675	27	0	0	
9	0	0	0	0	0	0	525	7	0	0	
10	0	0	0	0	0	0	560	7	0	0	
11	0	0	0	0	0	0	441	6	0	0	
12	0	0	0	0	0	0	454	6	0	0	
13	0	0	0	0	0	0	327	3	0	0	
14	0	0	0	0	0	0	390	4	0	0	
15	0	0	0	0	0	0	335	3	0	0	
0	0	0	0	0	0	0	451	6	0	0	
1	0	0	0	0	0	0	435	6	0	0	
2	0	0	0	0	0	0	584	8	0	0	
3	0	0	0	0	0	0	590	8	0	0	
4	0	0	0	0	0	0	742	31	0	0	
5	0	0	0	0	0	0	715	12	0	0	
6	0	0	0	0	0	0	840	15	0	0	
7	0	0	0	0	0	0	719	12	0	0	
8	0	0	0	0	0	0	729	30	0	0	
9	0	0	0	0	0	0	575	7	0	0	
10	0	0	0	0	0	0	575	7	0	0	
11	0	0	0	0	0	0	399	13	0	0	
12	0	0	0	0	0	0	327	3	0	0	
13	0	0	0	0	0	0	0	0	0	0	
14	0	0	0	0	0	0	0	0	0	0	
15	0	0	0	0	0	0	0	0	0	0	
0	0	0	0	0	0	0	0	0	0	0	
1	0	0	0	0	0	0	0	0	0	0	
2	0	0	0	0	0	0	0	0	0	0	
3	0	0	0	0	0	0	0	0	0	0	
4	0	0	0	0	0	0	0	0	0	0	
5	0	0	0	0	0	0	0	0	0	0	
6	0	0	0	0	0	0	374	12	0	0	
7	0	0	0	0	0	0	184	1	0	0	
8	0	0	0	0	0	0	53	0	0	0	
9	0	0	0	0	0	0	0	0	0	0	
10	0	0	0	0	0	0	0	0	0	0	
11	0	0	0	0	0	0	0	0	0	0	
12	0	0	0	0	0	0	0	0	0	0	
13	0	0	0	0	0	0	0	0	0	0	
14	0	0	0	0	0	0	0	0	0	0	
15	0	0	0	0	0	0	0	0	0	0	
0	0	0	0	0	0	0	0	0	0	0	
1	0	0	0	0	0	0	0	0	0	0	
2	0	0	0	0	0	0	0	0	0	0	
3	0	0	0	0	0	0	0	0	0	0	
4	0	0	0	0	0	0	0	0	0	0	
5	0	0	0	0	0	0	419	14	0	0	
6	0	0	0	0	0	0	963	48	0	0	
7	0	0	0	0	0	0	963	19	0	0	
8	0	0	0	0	0	0	963	19	0	0	
9	0	0	0	0	0	0	963	19	0	0	
10	0	0	0	0	0	0	963	19	0	0	
11	0	0	0	0	0	0	963	19	0	0	
12	0	0	0	0	0	0	963	48	0	0	
13	0	0	0	0	0	0	963	19	0	0	
14	0	0	0	0	0	0	962	19	0	0	
15	0	0	0	0	0	0	962	47	0	0	
0	0	0	0	0	0	0	962	19	0	0	
1	0	0	0	0	0	0	962	19	0	0	
2	0	0	0	0	0	0	962	19	0	0	
3	0	0	0	0	0	0	962	48	0	0	
4	0	0	0	0	0	0	962	48	0	0	
5	0	0	0	0	0	0	962	48	0	0	
6	0	0	0	0	0	0	962	48	0	0	
7	0	0	0	0	0	0	962	19	0	0	
8	0	0	0	0	0	0	962	19	0	0	
9	0	0	0	0	0	0	963	19	0	0	
10	0	0	0	0	0	0	963	19	0	0	
11	0	0	0	0	0	0	963	19	0	0	
12	0	0	0	0	0	0	963	48	0	0	
13	0	0	0	0	0	0	963	19	0	0	
14	0	0	0	0	0	0	963	48	0	0	
15	0	0	0	0	0	0	918	44	0	0	
0	0	0	0	0	0	0	0	0	0	0	
1	0	0	0	0	0	0	0	0	0	0	
2	0	0	0	0	0	0	0	0	0	0	
3	0	0	0	0	0	0	0	0	0	0	
4	0	0	0	0	0	0	0	0	0	0	
5	0	0	0	0	0	0	0	0	0	0	
6	0	0	0	0	0	0	0	0	0	0	
7	0	0	0	0	0	0	0	0	0	0	
8	0	0	0	0	0	0	0	0	0	0	
9	0	0	0	0	0	0	0	0	0	0	
10	0	0	0	0	0	0	0	0	0	0	
11	0	0	0	0	0	0	0	0	0	0	
12	0	0	0	0	0	0	0	0	0	0	
13	0	0	0	0	0	0	0	0	0	0	
14	0	0	0	0	0	0	0	0	0	0	
15	0	0	0	0	0	0	0	0	0	0	
0	0	0	0	0	0	0	0	0	0	0	
1	0	0	0	0	0	0	0	0	0	0	
2	0	0	0	0	0	0	0	0	0	0	
3	0	0	0	0	0	0	0	0	0	0	
4	0	0	0	0	0	0	0	0	0	0	
5	0	0	0	0	0	0	0	0	0	0	
6	0	0	0	0	0	0	0	0	0	0	
7	0	0	0	0	0	0	0	0	0	0	
8	0	0	0	0	0	0	0	0	0	0	
9	0	0	0	0	0	0	432	15	0	0	
10	0	0	0	0	0	0	965	48	0	0	
11	0	0	0	0	0	0	964	19	0	0	
12	0	0	0	0	0	0	964	19	0	0	
13	0	0	0	0	0	0	966	19	0	0	
14	0	0	0	0	0	0	967	48	0	0	
15	0	0	0	0	0	0	967	19	0	0	
0	0	0	0	0	0	0	964	19	0	0	
1	0	0	0	0	0	0	964	19	0	0	
2	0	0	0	0	0	0	964	19	0	0	
3	0	0	0	0	0	0	964	48	0	0	
4	0	0	0	0	0	0	964	19	0	0	
5	0	0	0	0	0	0	966	19	0	0	
6	0	0	0	0	0	0	967	19	0	0	
7	0	0	0	0	0	0	967	19	0	0	
8	0	0	0	0	0	0	967	48	0	0	
9	0	0	0	0	0	0	967	48	0	0	
10	0	0	0	0	0	0	967	48	0	0	
11	0	0	0	0	0	0	967	19	0	0	
12	0	0	0	0	0	0	967	19	0	0	
13	0	0	0	0	0	0	967	48	0	0	
14	0	0	0	0	0	0	964	19	0	0	
15	0	0	0	0	0	0	963	19	0	0	
0	0	0	0	0	0	0	963	48	0	0	
1	0	0	0	0	0	0	964	48	0	0	
2	0	0	0	0	0	0	964	19	0	0	
3	0	0	0	0	0	0	964	48	0	0	
4	0	0	0	0	0	0	332	10	0	0	
5	0	0	0	0	0	0	0	0	0	0	
6	0	0	0	0	0	0	0	0	0	0	
7	0	0	0	0	0	0	0	0	0	0	
8	0	0	0	0	0	0	0	0	0	0	
9	0	0	0	0	0	0	0	0	0	0	
10	0	0	0	0	0	0	0	0	0	0	
11	0	0	0	0	0	0	0	0	0	0	
12	0	0	0	0	0	0	0	0	0	0	
13	0	0	0	0	0	0	0	0	0	0	
14	0	0	0	0	0	0	0	0	0	0	
15	0	0	0	0	0	0	0	0	0	0	
0	0	0	0	0	0	0	0	0	0	0	
1	0	0	0	0	0	0	0	0	0	0	
2	0	0	0	0	0	0	0	0	0	0	
3	0	0	0	0	0	0	0	0	0	0	
4	0	0	0	0	0	0	0	0	0	0	
5	0	0	0	0	0	0	0	0	0	0	
6	0	0	0	0	0	0	0	0	0	0	
7	0	0	0	0	0	0	0	0	0	0	
8	0	0	0	0	0	0	0	0	0	0	
9	0	0	0	0	0	0	0	0	0	0	
10	0	0	0	0	0	0	0	0	0	0	
11	0	0	0	0	0	0	0	0	0	0	
12	0	0	0	0	0	0	0	0	0	0	
13	0	0	0	0	0	0	965	48	0	0	
14	0	0	0	0	0	0	964	19	0	0	
15	0	0	0	0	0	0	964	19	0	0	
0	0	0	0	0	0	0	964	19	0	0	
1	0	0	0	0	0	0	964	19	0	0	
2	0	0	0	0	0	0	964	19	0	0	
3	0	0	0	0	0	0	964	19	0	0	
4	0	0	0	0	0	0	964	19	0	0	
5	0	0	0	0	0	0	963	48	0	0	
6	0	0	0	0	0	0	963	48	0	0	
7	0	0	0	0	0	0	963	19	0	0	
8	0	0	0	0	0	0	963	48	0	0	
9	0	0	0	0	0	0	963	48	0	0	
10	0	0	0	0	0	0	963	19	0	0	
11	0	0	0	0	0	0	963	48	0	0	
12	0	0	0	0	0	0	963	48	0	0	
13	0	0	0	0	0	0	963	19	0	0	
14	0	0	0	0	0	0	963	19	0	0	
15	0	0	0	0	0	0	963	19	0	0	
0	0	0	0	0	0	0	963	19	0	0	
1	0	0	0	0	0	0	963	48	0	0	
2	0	0	0	0	0	0	963	19	0	0	
3	0	0	0	0	0	0	964	19	0	0	
4	0	0	0	0	0	0	964	19	0	0	
5	0	0	0	0	0	0	888	16	0	0	
6	0	0	0	0	0	0	0	0	0	0	
7	0	0	0	0	0	0	0	0	0	0	
8	0	0	0	0	0	0	0	0	0	0	
9	0	0	0	0	0	0	0	0	0	0	
10	0	0	0	0	0	0	0	0	0	0	
11	0	0	0	0	0	0	0	0	0	0	
12	0	0	0	0	0	0	0	0	0	0	
13	0	0	0	0	0	0	0	0	0	0	
14	0	0	0	0	0	0	0	0	0	0	
15	0	0	0	0	0	0	0	0	0	0	
0	0	0	0	0	0	0	0	0	0	0	
1	0	0	0	0	0	0	0	0	0	0	
2	0	0	0	0	0	0	0	0	0	0	
3	0	0	0	0	0	0	0	0	0	0	
4	0	0	0	0	0	0	0	0	0	0	
5	0	0	0	0	0	0	0	0	0	0	
6	0	0	0	0	0	0	0	0	0	0	
7	0	0	0	0	0	0	787	34	0	0	
8	0	0	0	0	0	0	964	19	0	0	
9	0	0	0	0	0	0	964	19	0	0	
10	0	0	0	0	0	0	964	48	0	0	
11	0	0	0	0	0	0	964	48	0	0	
12	0	0	0	0	0	0	964	19	0	0	
13	0	0	0	0	0	0	964	19	0	0	
14	0	0	0	0	0	0	964	48	0	0	
15	0	0	0	0	0	0	964	19	0	0	
0	0	0	0	0	0	0	964	48	0	0	
1	0	0	0	0	0	0	964	19	0	0	
2	0	0	0	0	0	0	964	19	0	0	
3	0	0	0	0	0	0	964	19	0	0	
4	0	0	0	0	0	0	964	48	0	0	
5	0	0	0	0	0	0	964	48	0	0	
6	0	0	0	0	0	0	964	19	0	0	
7	0	0	0	0	0	0	964	19	0	0	
8	0	0	0	0	0	0	964	48	0	0	
9	0	0	0	0	0	0	964	48	0	0	
10	0	0	0	0	0	0	964	19	0	0	
11	0	0	0	0	0	0	929	44	0	0	
12	0	0	0	0	0	0	792	14	0	0	
13	0	0	0	0	0	0	583	7	0	0	
14	0	0	0	0	0	0	459	6	0	0	
15	0	0	0	0	0	0	177	1	0	0	
0	0	0	0	0	0	0	0	0	0	0	
1	0	0	0	0	0	0	0	0	0	0	
2	0	0	0	0	0	0	0	0	0	0	
3	0	0	0	0	0	0	0	0	0	0	
4	0	0	0	0	0	0	0	0	0	0	
5	0	0	0	0	0	0	0	0	0	0	
6	0	0	0	0	0	0	0	0	0	0	
7	0	0	0	0	0	0	0	0	0	0	
8	0	0	0	0	0	0	0	0	0	0	
9	0	0	0	0	0	0	0	0	0	0	
10	0	0	0	0	0	0	0	0	0	0	
11	0	0	0	0	0	0	0	0	0	0	
12	0	0	0	0	0	0	0	0	0	0	
13	0	0	0	0	0	0	0	0	0	0	
14	0	0	0	0	0	0	0	0	0	0	
15	0	0	0	0	0	0	716	12	0	0	
0	0	0	0	0	0	0	964	48	0	0	
1	0	0	0	0	0	0	964	19	0	0	
2	0	0	0	0	0	0	964	48	0	0	
3	0	0	0	0	0	0	964	19	0	0	
4	0	0	0	0	0	0	964	19	0	0	
5	0	0	0	0	0	0	964	19	0	0	
6	0	0	0	0	0	0	964	19	0	0	
7	0	0	0	0	0	0	964	19	0	0	
8	0	0	0	0	0	0	964	19	0	0	
9	0	0	0	0	0	0	964	48	0	0	
10	0	0	0	0	0	0	964	19	0	0	
11	0	0	0	0	0	0	964	19	0	0	
12	0	0	0	0	0	0	964	48	0	0	
13	0	0	0	0	0	0	964	19	0	0	
14	0	0	0	0	0	0	964	19	0	0	
15	0	0	0	0	0	0	964	19	0	0	
0	0	0	0	0	0	0	964	19	0	0	
1	0	0	0	0	0	0	627	9	0	0	
2	0	0	0	0	0	0	361	4	0	0	
3	0	0	0	0	0	0	201	1	0	0	
4	0	0	0	0	0	0	179	1	0	0	
5	0	0	0	0	0	0	124	0	0	0	
6	0	0	0	0	0	0	187	1	0	0	
7	0	0	0	0	0	0	49	0	0	0	
8	0	0	0	0	0	0	54	0	0	0	
9	0	0	0	0	0	0	0	0	0	0	
10	0	0	0	0	0	0	156	3	0	0	
11	0	0	0	0	0	0	31	0	0	0	
12	0	0	0	0	0	0	103	0	0	0	
13	0	0	0	0	0	0	96	0	0	0	
14	0	0	0	0	0	0	273	7	0	0	
15	0	0	0	0	0	0	295	3	0	0	
0	0	0	0	0	0	0	487	17	0	0	
1	0	0	0	0	0	0	444	15	0	0	
2	0	0	0	0	0	0	600	9	0	0	
3	0	0	0	0	0	0	639	9	0	0	
4	0	0	0	0	0	0	804	14	0	0	
5	0	0	0	0	0	0	844	15	0	0	
6	0	0	0	0	0	0	964	19	0	0	
7	0	0	0	0	0	0	964	19	0	0	
8	0	0	0	0	0	0	964	48	0	0	
9	0	0	0	0	0	0	964	19	0	0	
10	0	0	0	0	0	0	964	19	0	0	
11	0	0	0	0	0	0	964	19	0	0	
12	0	0	0	0	0	0	964	19	0	0	
13	0	0	0	0	0	0	964	48	0	0	
14	0	0	0	0	0	0	964	19	0	0	
15	0	0	0	0	0	0	964	48	0	0	
0	0	0	0	0	0	0	964	48	0	0	
1	0	0	0	0	0	0	964	19	0	0	
2	0	0	0	0	0	0	964	19	0	0	
3	0	0	0	0	0	0	964	19	0	0	
4	0	0	0	0	0	0	964	19	0	0	
5	0	0	0	0	0	0	964	19	0	0	
6	0	0	0	0	0	0	964	19	0	0	
7	0	0	0	0	0	0	964	19	0	0	
8	0	0	0	0	0	0	964	48	0	0	
9	0	0	0	0	0	0	964	19	0	0	
10	0	0	0	0	0	0	964	19	0	0	
11	0	0	0	0	0	0	964	48	0	0	
12	0	0	0	0	0	0	689	28	0	0	
13	0	0	0	0	0	0	423	14	0	0	
14	0	0	0	0	0	0	391	12	0	0	
15	0	0	0	0	0	0	135	0	0	0	
0	0	0	0	0	0	0	94	1	0	0	
1	0	0	0	0	0	0	0	0	0	0	
2	0	0	0	0	0	0	0	0	0	0	
3	0	0	0	0	0	0	0	0	0	0	
4	0	0	0	0	0	0	0	0	0	0	
5	0	0	0	0	0	0	0	0	0	0	
6	0	0	0	0	0	0	227	1	0	0	
7	0	0	0	0	0	0	153	0	0	0	
8	0	0	0	0	0	0	280	7	0	0	
9	0	0	0	0	0	0	336	11	0	0	
10	0	0	0	0	0	0	495	7	0	0	
11	0	0	0	0	0	0	510	7	0	0	
12	0	0	0	0	0	0	736	12	0	0	
13	0	0	0	0	0	0	833	38	0	0	
14	0	0	0	0	0	0	964	19	0	0	
15	0	0	0	0	0	0	964	48	0	0	
0	0	0	0	0	0	0	964	19	0	0	
1	0	0	0	0	0	0	964	48	0	0	
2	0	0	0	0	0	0	964	48	0	0	
3	0	0	0	0	0	0	964	48	0	0	
4	0	0	0	0	0	0	964	19	0	0	
5	0	0	0	0	0	0	964	19	0	0	
6	0	0	0	0	0	0	964	19	0	0	
7	0	0	0	0	0	0	964	19	0	0	
8	0	0	0	0	0	0	964	48	0	0	
9	0	0	0	0	0	0	964	19	0	0	
10	0	0	0	0	0	0	964	19	0	0	
11	0	0	0	0	0	0	964	48	0	0	
12	0	0	0	0	0	0	964	19	0	0	
13	0	0	0	0	0	0	964	19	0	0	
14	0	0	0	0	0	0	964	19	0	0	
15	0	0	0	0	0	0	964	19	0	0	
0	0	0	0	0	0	0	964	19	0	0	
1	0	0	0	0	0	0	964	19	0	0	
2	0	0	0	0	0	0	964	19	0	0	
3	0	0	0	0	0	0	964	48	0	0	
4	0	0	0	0	0	0	964	48	0	0	
5	0	0	0	0	0	0	908	43	0	0	
6	0	0	0	0	0	0	770	33	0	0	
7	0	0	0	0	0	0	752	12	0	0	
8	0	0	0	0	0	0	807	14	0	0	
9	0	0	0	0	0	0	756	31	0	0	
10	0	0	0	0	0	0	835	15	0	0	
11	0	0	0	0	0	0	759	31	0	0	
12	0	0	0	0	0	0	817	35	0	0	
13	0	0	0	0	0	0	753	12	0	0	
14	0	0	0	0	0	0	824	15	0	0	
15	0	0	0	0	0	0	764	32	0	0	
0	0	0	0	0	0	0	803	14	0	0	
1	0	0	0	0	0	0	690	11	0	0	
2	0	0	0	0	0	0	729	12	0	0	
3	0	0	0	0	0	0	614	9	0	0	
4	0	0	0	0	0	0	659	11	0	0	
5	0	0	0	0	0	0	590	8	0	0	
6	0	0	0	0	0	0	671	11	0	0	
7	0	0	0	0	0	0	619	9	0	0	
8	0	0	0	0	0	0	723	12	0	0	
9	0	0	0	0	0	0	683	11	0	0	
10	0	0	0	0	0	0	870	15	0	0	
11	0	0	0	0	0	0	927	18	0	0	
12	0	0	0	0	0	0	964	48	0	0	
13	0	0	0	0	0	0	964	48	0	0	
14	0	0	0	0	0	0	964	48	0	0	
15	0	0	0	0	0	0	964	48	0	0	
0	0	0	0	0	0	0	964	48	0	0	
1	0	0	0	0	0	0	964	19	0	0	
2	0	0	0	0	0	0	964	19	0	0	
3	0	0	0	0	0	0	964	19	0	0	
4	0	0	0	0	0	0	964	19	0	0	
5	0	0	0	0	0	0	964	48	0	0	
6	0	0	0	0	0	0	963	19	0	0	
7	0	0	0	0	0	0	963	19	0	0	
8	0	0	0	0	0	0	963	48	0	0	
9	0	0	0	0	0	0	963	19	0	0	
10	0	0	0	0	0	0	963	19	0	0	
11	0	0	0	0	0	0	963	19	0	0	
12	0	0	0	0	0	0	963	19	0	0	
13	0	0	0	0	0	0	963	19	0	0	
14	0	0	0	0	0	0	963	48	0	0	
15	0	0	0	0	0	0	963	19	0	0	
0	0	0	0	0	0	0	963	19	0	0	
1	0	0	0	0	0	0	963	19	0	0	
2	0	0	0	0	0	0	963	19	0	0	
3	0	0	0	0	0	0	964	48	0	0	
4	0	0	0	0	0	0	964	19	0	0	
5	0	0	0	0	0	0	964	48	0	0	
6	0	0	0	0	0	0	964	19	0	0	
7	0	0	0	0	0	0	964	19	0	0	
8	0	0	0	0	0	0	964	48	0	0	
9	0	0	0	0	0	0	964	48	0	0	
10	0	0	0	0	0	0	964	48	0	0	
11	0	0	0	0	0	0	964	19	0	0	
12	0	0	0	0	0	0	803	35	0	0	
13	0	0	0	0	0	0	557	20	0	0	
14	0	0	0	0	0	0	642	9	0	0	
15	0	0	0	0	0	0	537	7	0	0	
0	0	0	0	0	0	0	632	9	0	0	
1	0	0	0	0	0	0	644	25	0	0	
2	0	0	0	0	0	0	790	14	0	0	
3	0	0	0	0	0	0	583	7	0	0	
4	0	0	0	0	0	0	408	5	0	0	
5	0	0	0	0	0	0	364	12	0	0	
6	0	0	0	0	0	0	505	7	0	0	
7	0	0	0	0	0	0	534	7	0	0	
8	0	0	0	0	0	0	582	7	0	0	
9	0	0	0	0	0	0	414	5	0	0	
10	0	0	0	0	0	0	432	6	0	0	
11	0	0	0	0	0	0	399	4	0	0	
12	0	0	0	0	0	0	413	5	0	0	
13	0	0	0	0	0	0	217	1	0	0	
14	0	0	0	0	0	0	27	0	0	0	
15	0	0	0	0	0	0	0	0	0	0	
0	0	0	0	0	0	0	0	0	0	0	
1	0	0	0	0	0	0	0	0	0	0	
2	0	0	0	0	0	0	300	9	0	0	
3	0	0	0	0	0	0	347	11	0	0	
4	0	0	0	0	0	0	6	0	0	0	
5	0	0	0	0	0	0	0	0	0	0	
6	0	0	0	0	0	0	0	0	0	0	
7	0	0	0	0	0	0	0	0	0	0	
8	0	0	0	0	0	0	0	0	0	0	
9	0	0	0	0	0	0	151	3	0	0	
10	0	0	0	0	0	0	192	1	0	0	
11	0	0	0	0	0	0	273	7	0	0	
12	0	0	0	0	0	0	448	6	0	0	
13	0	0	0	0	0	0	555	7	0	0	
14	0	0	0	0	0	0	875	16	0	0	
15	0	0	0	0	0	0	868	15	0	0	
0	0	0	0	0	0	0	896	17	0	0	
1	0	0	0	0	0	0	870	15	0	0	
2	0	0	0	0	0	0	911	17	0	0	
3	0	0	0	0	0	0	931	18	0	0	
4	0	0	0	0	0	0	944	19	0	0	
5	0	0	0	0	0	0	943	19	0	0	
6	0	0	0	0	0	0	945	19	0	0	
7	0	0	0	0	0	0	916	17	0	0	
8	0	0	0	0	0	0	942	19	0	0	
9	0	0	0	0	0	0	947	19	0	0	
10	0	0	0	0	0	0	953	47	0	0	
11	0	0	0	0	0	0	950	19	0	0	
12	0	0	0	0	0	0	958	47	0	0	
13	0	0	0	0	0	0	956	47	0	0	
14	0	0	0	0	0	0	956	19	0	0	
15	0	0	0	0	0	0	956	19	0	0	
0	0	0	0	0	0	0	963	19	0	0	
1	0	0	0	0	0	0	961	19	0	0	
2	0	0	0	0	0	0	960	19	0	0	
3	0	0	0	0	0	0	961	48	0	0	
4	0	0	0	0	0	0	864	15	0	0	
5	0	0	0	0	0	0	440	6	0	0	
6	0	0	0	0	0	0	477	16	0	0	
7	0	0	0	0	0	0	279	7	0	0	
8	0	0	0	0	0	0	241	7	0	0	
9	0	0	0	0	0	0	108	1	0	0	
10	0	0	0	0	0	0	92	0	0	0	
11	0	0	0	0	0	0	2	0	0	0	
12	0	0	0	0	0	0	0	0	0	0	
13	0	0	0	0	0	0	0	0	0	0	
14	0	0	0	0	0	0	0	0	0	0	
15	0	0	0	0	0	0	0	0	0	0	
0	0	0	0	0	0	0	0	0	0	0	
1	0	0	0	0	0	0	0	0	0	0	
2	0	0	0	0	0	0	0	0	0	0	
3	0	0	0	0	0	0	0	0	0	0	
4	0	0	0	0	0	0	0	0	0	0	
5	0	0	0	0	0	0	0	0	0	0	
6	0	0	0	0	0	0	0	0	0	0	
7	0	0	0	0	0	0	0	0	0	0	
8	0	0	0	0	0	0	0	0	0	0	
9	0	0	0	0	0	0	0	0	0	0	
10	0	0	0	0	0	0	0	0	0	0	
11	0	0	0	0	0	0	0	0	0	0	
12	0	0	0	0	0	0	0	0	0	0	
13	0	0	0	0	0	0	0	0	0	0	
14	0	0	0	0	0	0	0	0	0	0	
15	0	0	0	0	0	0	0	0	0	0	
0	0	0	0	0	0	0	0	0	0	0	
1	0	0	0	0	0	0	0	0	0	0	
2	0	0	0	0	0	0	0	0	0	0	
3	0	0	0	0	0	0	0	0	0	0	
4	0	0	0	0	0	0	0	0	0	0	
5	0	0	0	0	0	0	0	0	0	0	
6	0	0	0	0	0	0	0	0	0	0	
7	0	0	0	0	0	0	0	0	0	0	
8	0	0	0	0	0	0	0	0	0	0	
9	0	0	0	0	0	0	0	0	0	0	
10	0	0	0	0	0	0	0	0	0	0	
11	0	0	0	0	0	0	0	0	0	0	
12	0	0	0	0	0	0	0	0	0	0	
13	0	0	0	0	0	0	0	0	0	0	
14	0	0	0	0	0	0	0	0	0	0	
15	0	0	0	0	0	0	0	0	0	0	
0	0	0	0	0	0	0	0	0	0	0	
1	0	0	0	0	0	0	99	0	0	0	
2	0	0	0	0	0	0	129	0	0	0	
3	0	0	0	0	0	0	20	0	0	0	
4	0	0	0	0	0	0	79	1	0	0	
5	0	0	0	0	0	0	15	0	0	0	
6	0	0	0	0	0	0	111	2	0	0	
7	0	0	0	0	0	0	35	0	0	0	
8	0	0	0	0	0	0	130	3	0	0	
9	0	0	0	0	0	0	70	0	0	0	
10	0	0	0	0	0	0	129	0	0	0	
11	0	0	0	0	0	0	30	0	0	0	
12	0	0	0	0	0	0	83	0	0	0	
13	0	0	0	0	0	0	35	0	0	0	
14	0	0	0	0	0	0	115	0	0	0	
15	0	0	0	0	0	0	17	0	0	0	
0	0	0	0	0	0	0	148	0	0	0	
1	0	0	0	0	0	0	50	0	0	0	
2	0	0	0	0	0	0	137	0	0	0	
3	0	0	0	0	0	0	7	0	0	0	
4	0	0	0	0	0	0	57	0	0	0	
5	0	0	0	0	0	0	0	0	0	0	
6	0	0	0	0	0	0	0	0	0	0	
7	0	0	0	0	0	0	0	0	0	0	
8	0	0	0	0	0	0	0	0	0	0	
9	0	0	0	0	0	0	0	0	0	0	
10	0	0	0	0	0	0	0	0	0	0	
11	0	0	0	0	0	0	0	0	0	0	
12	0	0	0	0	0	0	0	0	0	0	
13	0	0	0	0	0	0	0	0	0	0	
14	0	0	0	0	0	0	0	0	0	0	
15	0	0	0	0	0	0	0	0	0	0	
0	0	0	0	0	0	0	0	0	0	0	
1	0	0	0	0	0	0	0	0	0	0	
2	0	0	0	0	0	0	0	0	0	0	
3	0	0	0	0	0	0	0	0	0	0	
4	0	0	0	0	0	0	0	0	0	0	
5	0	0	0	0	0	0	0	0	0	0	
6	0	0	0	0	0	0	0	0	0	0	
7	0	0	0	0	0	0	0	0	0	0	
8	0	0	0	0	0	0	0	0	0	0	
9	0	0	0	0	0	0	0	0	0	0	
10	0	0	0	0	0	0	0	0	0	0	
11	0	0	0	0	0	0	0	0	0	0	
12	0	0	0	0	0	0	63	0	0	0	
13	0	0	0	0	0	0	510	18	0	0	
14	0	0	0	0	0	0	785	34	0	0	
15	0	0	0	0	0	0	953	19	0	0	
0	0	0	0	0	0	0	953	47	0	0	
1	0	0	0	0	0	0	952	47	0	0	
2	0	0	0	0	0	0	952	19	0	0	
3	0	0	0	0	0	0	952	47	0	0	
4	0	0	0	0	0	0	950	46	0	0	
5	0	0	0	0	0	0	947	19	0	0	
6	0	0	0	0	0	0	944	19	0	0	
7	0	0	0	0	0	0	936	19	0	0	
8	0	0	0	0	0	0	931	18	0	0	
9	0	0	0	0	0	0	926	18	0	0	
10	0	0	0	0	0	0	920	18	0	0	
11	0	0	0	0	0	0	918	17	0	0	
12	0	0	0	0	0	0	919	17	0	0	
13	0	0	0	0	0	0	921	18	0	0	
14	0	0	0	0	0	0	930	18	0	0	
15	0	0	0	0	0	0	937	19	0	0	
0	0	0	0	0	0	0	937	19	0	0	
1	0	0	0	0	0	0	939	46	0	0	
2	0	0	0	0	0	0	937	19	0	0	
3	0	0	0	0	0	0	936	19	0	0	
4	0	0	0	0	0	0	935	45	0	0	
5	0	0	0	0	0	0	932	18	0	0	
6	0	0	0	0	0	0	929	18	0	0	
7	0	0	0	0	0	0	932	45	0	0	
8	0	0	0	0	0	0	935	18	0	0	
9	0	0	0	0	0	0	937	46	0	0	
10	0	0	0	0	0	0	940	19	0	0	
11	0	0	0	0	0	0	940	19	0	0	
12	0	0	0	0	0	0	940	19	0	0	
13	0	0	0	0	0	0	940	19	0	0	
14	0	0	0	0	0	0	939	19	0	0	
15	0	0	0	0	0	0	937	46	0	0	
0	0	0	0	0	0	0	935	19	0	0	
1	0	0	0	0	0	0	935	19	0	0	
2	0	0	0	0	0	0	937	19	0	0	
3	0	0	0	0	0	0	938	46	0	0	
4	0	0	0	0	0	0	940	19	0	0	
5	0	0	0	0	0	0	940	46	0	0	
6	0	0	0	0	0	0	939	19	0	0	
7	0	0	0	0	0	0	937	46	0	0	
8	0	0	0	0	0	0	935	45	0	0	
9	0	0	0	0	0	0	931	18	0	0	
10	0	0	0	0	0	0	924	18	0	0	
11	0	0	0	0	0	0	813	35	0	0	
12	0	0	0	0	0	0	798	14	0	0	
13	0	0	0	0	0	0	718	30	0	0	
14	0	0	0	0	0	0	815	15	0	0	
15	0	0	0	0	0	0	750	31	0	0	
0	0	0	0	0	0	0	875	39	0	0	
1	0	0	0	0	0	0	768	13	0	0	
2	0	0	0	0	0	0	870	39	0	0	
3	0	0	0	0	0	0	723	30	0	0	
4	0	0	0	0	0	0	760	31	0	0	
5	0	0	0	0	0	0	551	20	0	0	
6	0	0	0	0	0	0	568	7	0	0	
7	0	0	0	0	0	0	382	4	0	0	
8	0	0	0	0	0	0	494	7	0	0	
9	0	0	0	0	0	0	434	6	0	0	
10	0	0	0	0	0	0	441	6	0	0	
11	0	0	0	0	0	0	99	0	0	0	
12	0	0	0	0	0	0	216	1	0	0	
13	0	0	0	0	0	0	156	0	0	0	
14	0	0	0	0	0	0	307	9	0	0	
15	0	0	0	0	0	0	248	2	0	0	
0	0	0	0	0	0	0	417	5	0	0	
1	0	0	0	0	0	0	371	12	0	0	
2	0	0	0	0	0	0	547	7	0	0	
3	0	0	0	0	0	0	487	7	0	0	
4	0	0	0	0	0	0	630	24	0	0	
5	0	0	0	0	0	0	529	19	0	0	
6	0	0	0	0	0	0	652	25	0	0	
7	0	0	0	0	0	0	553	7	0	0	
8	0	0	0	0	0	0	676	11	0	0	
9	0	0	0	0	0	0	568	7	0	0	
10	0	0	0	0	0	0	683	28	0	0	
11	0	0	0	0	0	0	569	21	0	0	
12	0	0	0	0	0	0	692	11	0	0	
13	0	0	0	0	0	0	588	8	0	0	
14	0	0	0	0	0	0	716	12	0	0	
15	0	0	0	0	0	0	609	24	0	0	
0	0	0	0	0	0	0	728	12	0	0	
1	0	0	0	0	0	0	604	9	0	0	
2	0	0	0	0	0	0	705	29	0	0	
3	0	0	0	0	0	0	579	7	0	0	
4	0	0	0	0	0	0	683	28	0	0	
5	0	0	0	0	0	0	545	7	0	0	
6	0	0	0	0	0	0	637	24	0	0	
7	0	0	0	0	0	0	487	7	0	0	
8	0	0	0	0	0	0	572	7	0	0	
9	0	0	0	0	0	0	423	14	0	0	
10	0	0	0	0	0	0	524	7	0	0	
11	0	0	0	0	0	0	401	4	0	0	
12	0	0	0	0	0	0	508	18	0	0	
13	0	0	0	0	0	0	380	12	0	0	
14	0	0	0	0	0	0	502	7	0	0	
15	0	0	0	0	0	0	396	13	0	0	
0	0	0	0	0	0	0	527	19	0	0	
1	0	0	0	0	0	0	419	5	0	0	
2	0	0	0	0	0	0	531	7	0	0	
3	0	0	0	0	0	0	423	6	0	0	
4	0	0	0	0	0	0	527	7	0	0	
5	0	0	0	0	0	0	403	5	0	0	
6	0	0	0	0	0	0	492	17	0	0	
7	0	0	0	0	0	0	369	12	0	0	
8	0	0	0	0	0	0	396	13	0	0	
9	0	0	0	0	0	0	342	11	0	0	
10	0	0	0	0	0	0	395	13	0	0	
11	0	0	0	0	0	0	368	4	0	0	
12	0	0	0	0	0	0	460	6	0	0	
13	0	0	0	0	0	0	448	6	0	0	
14	0	0	0	0	0	0	531	7	0	0	
15	0	0	0	0	0	0	494	17	0	0	
0	0	0	0	0	0	0	563	7	0	0	
1	0	0	0	0	0	0	505	18	0	0	
2	0	0	0	0	0	0	534	7	0	0	
3	0	0	0	0	0	0	423	14	0	0	
4	0	0	0	0	0	0	417	5	0	0	
5	0	0	0	0	0	0	304	3	0	0	
6	0	0	0	0	0	0	318	9	0	0	
7	0	0	0	0	0	0	222	6	0	0	
8	0	0	0	0	0	0	263	2	0	0	
9	0	0	0	0	0	0	185	4	0	0	
10	0	0	0	0	0	0	240	7	0	0	
11	0	0	0	0	0	0	191	4	0	0	
12	0	0	0	0	0	0	272	3	0	0	
13	0	0	0	0	0	0	262	2	0	0	
14	0	0	0	0	0	0	363	4	0	0	
15	0	0	0	0	0	0	332	3	0	0	
0	0	0	0	0	0	0	395	4	0	0	
1	0	0	0	0	0	0	329	10	0	0	
2	0	0	0	0	0	0	483	7	0	0	
3	0	0	0	0	0	0	575	7	0	0	
4	0	0	0	0	0	0	654	10	0	0	
5	0	0	0	0	0	0	399	4	0	0	
6	0	0	0	0	0	0	467	6	0	0	
7	0	0	0	0	0	0	460	6	0	0	
8	0	0	0	0	0	0	523	7	0	0	
9	0	0	0	0	0	0	470	6	0	0	
10	0	0	0	0	0	0	516	7	0	0	
11	0	0	0	0	0	0	460	6	0	0	
12	0	0	0	0	0	0	527	19	0	0	
13	0	0	0	0	0	0	472	6	0	0	
14	0	0	0	0	0	0	523	7	0	0	
15	0	0	0	0	0	0	456	6	0	0	
0	0	0	0	0	0	0	513	7	0	0	
1	0	0	0	0	0	0	464	15	0	0	
2	0	0	0	0	0	0	527	7	0	0	
3	0	0	0	0	0	0	459	6	0	0	
4	0	0	0	0	0	0	492	17	0	0	
5	0	0	0	0	0	0	413	5	0	0	
6	0	0	0	0	0	0	455	6	0	0	
7	0	0	0	0	0	0	396	4	0	0	
8	0	0	0	0	0	0	455	15	0	0	
9	0	0	0	0	0	0	408	5	0	0	
10	0	0	0	0	0	0	472	16	0	0	
11	0	0	0	0	0	0	417	5	0	0	
12	0	0	0	0	0	0	478	7	0	0	
13	0	0	0	0	0	0	423	6	0	0	
14	0	0	0	0	0	0	495	7	0	0	
15	0	0	0	0	0	0	455	15	0	0	
0	0	0	0	0	0	0	524	7	0	0	
1	0	0	0	0	0	0	475	7	0	0	
2	0	0	0	0	0	0	531	7	0	0	
3	0	0	0	0	0	0	480	17	0	0	
4	0	0	0	0	0	0	551	20	0	0	
5	0	0	0	0	0	0	531	19	0	0	
6	0	0	0	0	0	0	633	9	0	0	
7	0	0	0	0	0	0	615	9	0	0	
8	0	0	0	0	0	0	702	12	0	0	
9	0	0	0	0	0	0	671	11	0	0	
10	0	0	0	0	0	0	751	31	0	0	
11	0	0	0	0	0	0	700	12	0	0	
12	0	0	0	0	0	0	750	12	0	0	
13	0	0	0	0	0	0	678	11	0	0	
14	0	0	0	0	0	0	716	12	0	0	
15	0	0	0	0	0	0	652	10	0	0	
0	0	0	0	0	0	0	711	12	0	0	
1	0	0	0	0	0	0	657	10	0	0	
2	0	0	0	0	0	0	707	12	0	0	
3	0	0	0	0	0	0	655	11	0	0	
4	0	0	0	0	0	0	721	30	0	0	
5	0	0	0	0	0	0	673	11	0	0	
6	0	0	0	0	0	0	728	12	0	0	
7	0	0	0	0	0	0	659	11	0	0	
8	0	0	0	0	0	0	697	12	0	0	
9	0	0	0	0	0	0	622	9	0	0	
10	0	0	0	0	0	0	652	10	0	0	
11	0	0	0	0	0	0	560	7	0	0	
12	0	0	0	0	0	0	587	8	0	0	
13	0	0	0	0	0	0	499	17	0	0	
14	0	0	0	0	0	0	521	7	0	0	
15	0	0	0	0	0	0	446	6	0	0	
0	0	0	0	0	0	0	500	7	0	0	
1	0	0	0	0	0	0	448	6	0	0	
2	0	0	0	0	0	0	511	7	0	0	
3	0	0	0	0	0	0	467	6	0	0	
4	0	0	0	0	0	0	547	19	0	0	
5	0	0	0	0	0	0	527	7	0	0	
6	0	0	0	0	0	0	614	9	0	0	
7	0	0	0	0	0	0	575	22	0	0	
8	0	0	0	0	0	0	644	25	0	0	
9	0	0	0	0	0	0	591	23	0	0	
10	0	0	0	0	0	0	657	11	0	0	
11	0	0	0	0	0	0	598	8	0	0	
12	0	0	0	0	0	0	641	25	0	0	
13	0	0	0	0	0	0	568	21	0	0	
14	0	0	0	0	0	0	604	9	0	0	
15	0	0	0	0	0	0	534	19	0	0	
0	0	0	0	0	0	0	558	7	0	0	
1	0	0	0	0	0	0	496	7	0	0	
2	0	0	0	0	0	0	678	28	0	0	
3	0	0	0	0	0	0	775	14	0	0	
4	0	0	0	0	0	0	753	12	0	0	
5	0	0	0	0	0	0	483	7	0	0	
6	0	0	0	0	0	0	553	20	0	0	
7	0	0	0	0	0	0	508	7	0	0	
8	0	0	0	0	0	0	572	7	0	0	
9	0	0	0	0	0	0	535	7	0	0	
10	0	0	0	0	0	0	604	9	0	0	
11	0	0	0	0	0	0	560	7	0	0	
12	0	0	0	0	0	0	624	24	0	0	
13	0	0	0	0	0	0	568	7	0	0	
14	0	0	0	0	0	0	617	24	0	0	
15	0	0	0	0	0	0	540	19	0	0	
0	0	0	0	0	0	0	606	24	0	0	
1	0	0	0	0	0	0	587	8	0	0	
2	0	0	0	0	0	0	692	11	0	0	
3	0	0	0	0	0	0	679	11	0	0	
4	0	0	0	0	0	0	771	33	0	0	
5	0	0	0	0	0	0	739	12	0	0	
6	0	0	0	0	0	0	801	14	0	0	
7	0	0	0	0	0	0	729	30	0	0	
8	0	0	0	0	0	0	764	32	0	0	
9	0	0	0	0	0	0	664	27	0	0	
10	0	0	0	0	0	0	664	11	0	0	
11	0	0	0	0	0	0	551	7	0	0	
12	0	0	0	0	0	0	542	19	0	0	
13	0	0	0	0	0	0	414	5	0	0	
14	0	0	0	0	0	0	428	6	0	0	
15	0	0	0	0	0	0	335	3	0	0	
0	0	0	0	0	0	0	363	4	0	0	
1	0	0	0	0	0	0	295	3	0	0	
2	0	0	0	0	0	0	365	12	0	0	
3	0	0	0	0	0	0	319	9	0	0	
4	0	0	0	0	0	0	408	14	0	0	
5	0	0	0	0	0	0	391	4	0	0	
6	0	0	0	0	0	0	483	7	0	0	
7	0	0	0	0	0	0	452	6	0	0	
8	0	0	0	0	0	0	518	7	0	0	
9	0	0	0	0	0	0	467	15	0	0	
10	0	0	0	0	0	0	521	7	0	0	
11	0	0	0	0	0	0	460	6	0	0	
12	0	0	0	0	0	0	515	19	0	0	
13	0	0	0	0	0	0	460	6	0	0	
14	0	0	0	0	0	0	534	7	0	0	
15	0	0	0	0	0	0	511	7	0	0	
0	0	0	0	0	0	0	606	24	0	0	
1	0	0	0	0	0	0	583	22	0	0	
2	0	0	0	0	0	0	681	11	0	0	
3	0	0	0	0	0	0	667	11	0	0	
4	0	0	0	0	0	0	743	12	0	0	
5	0	0	0	0	0	0	689	11	0	0	
6	0	0	0	0	0	0	723	30	0	0	
7	0	0	0	0	0	0	638	9	0	0	
8	0	0	0	0	0	0	664	27	0	0	
9	0	0	0	0	0	0	575	22	0	0	
10	0	0	0	0	0	0	595	8	0	0	
11	0	0	0	0	0	0	518	7	0	0	
12	0	0	0	0	0	0	561	7	0	0	
13	0	0	0	0	0	0	504	7	0	0	
14	0	0	0	0	0	0	551	7	0	0	
15	0	0	0	0	0	0	502	17	0	0	
0	0	0	0	0	0	0	577	7	0	0	
1	0	0	0	0	0	0	542	19	0	0	
2	0	0	0	0	0	0	615	9	0	0	
3	0	0	0	0	0	0	575	7	0	0	
4	0	0	0	0	0	0	646	9	0	0	
5	0	0	0	0	0	0	577	7	0	0	
6	0	0	0	0	0	0	615	24	0	0	
7	0	0	0	0	0	0	521	7	0	0	
8	0	0	0	0	0	0	543	7	0	0	
9	0	0	0	0	0	0	430	15	0	0	
10	0	0	0	0	0	0	415	5	0	0	
11	0	0	0	0	0	0	295	8	0	0	
12	0	0	0	0	0	0	332	3	0	0	
13	0	0	0	0	0	0	278	7	0	0	
14	0	0	0	0	0	0	356	3	0	0	
15	0	0	0	0	0	0	335	11	0	0	
0	0	0	0	0	0	0	496	7	0	0	
1	0	0	0	0	0	0	620	9	0	0	
2	0	0	0	0	0	0	785	14	0	0	
3	0	0	0	0	0	0	519	19	0	0	
4	0	0	0	0	0	0	499	7	0	0	
5	0	0	0	0	0	0	460	15	0	0	
6	0	0	0	0	0	0	513	7	0	0	
7	0	0	0	0	0	0	465	6	0	0	
8	0	0	0	0	0	0	513	19	0	0	
9	0	0	0	0	0	0	460	15	0	0	
10	0	0	0	0	0	0	539	7	0	0	
11	0	0	0	0	0	0	499	17	0	0	
12	0	0	0	0	0	0	547	19	0	0	
13	0	0	0	0	0	0	478	16	0	0	
14	0	0	0	0	0	0	518	7	0	0	
15	0	0	0	0	0	0	468	6	0	0	
0	0	0	0	0	0	0	543	19	0	0	
1	0	0	0	0	0	0	516	7	0	0	
2	0	0	0	0	0	0	584	22	0	0	
3	0	0	0	0	0	0	547	7	0	0	
4	0	0	0	0	0	0	624	24	0	0	
5	0	0	0	0	0	0	579	22	0	0	
6	0	0	0	0	0	0	621	9	0	0	
7	0	0	0	0	0	0	530	7	0	0	
8	0	0	0	0	0	0	536	7	0	0	
9	0	0	0	0	0	0	432	6	0	0	
10	0	0	0	0	0	0	439	6	0	0	
11	0	0	0	0	0	0	345	3	0	0	
12	0	0	0	0	0	0	395	13	0	0	
13	0	0	0	0	0	0	368	12	0	0	
14	0	0	0	0	0	0	467	6	0	0	
15	0	0	0	0	0	0	470	6	0	0	
0	0	0	0	0	0	0	556	20	0	0	
1	0	0	0	0	0	0	518	19	0	0	
2	0	0	0	0	0	0	572	7	0	0	
3	0	0	0	0	0	0	519	19	0	0	
4	0	0	0	0	0	0	558	20	0	0	
5	0	0	0	0	0	0	498	7	0	0	
6	0	0	0	0	0	0	548	20	0	0	
7	0	0	0	0	0	0	496	7	0	0	
8	0	0	0	0	0	0	547	7	0	0	
9	0	0	0	0	0	0	510	7	0	0	
10	0	0	0	0	0	0	583	22	0	0	
11	0	0	0	0	0	0	555	7	0	0	
12	0	0	0	0	0	0	635	24	0	0	
13	0	0	0	0	0	0	611	24	0	0	
14	0	0	0	0	0	0	687	28	0	0	
15	0	0	0	0	0	0	649	10	0	0	
0	0	0	0	0	0	0	704	12	0	0	
1	0	0	0	0	0	0	638	9	0	0	
2	0	0	0	0	0	0	659	25	0	0	
3	0	0	0	0	0	0	572	7	0	0	
4	0	0	0	0	0	0	596	8	0	0	
5	0	0	0	0	0	0	529	19	0	0	
6	0	0	0	0	0	0	588	8	0	0	
7	0	0	0	0	0	0	569	22	0	0	
8	0	0	0	0	0	0	634	9	0	0	
9	0	0	0	0	0	0	591	8	0	0	
10	0	0	0	0	0	0	651	10	0	0	
11	0	0	0	0	0	0	590	8	0	0	
12	0	0	0	0	0	0	627	24	0	0	
13	0	0	0	0	0	0	555	20	0	0	
14	0	0	0	0	0	0	595	8	0	0	
15	0	0	0	0	0	0	536	7	0	0	
0	0	0	0	0	0	0	582	7	0	0	
1	0	0	0	0	0	0	539	19	0	0	
2	0	0	0	0	0	0	582	7	0	0	
3	0	0	0	0	0	0	536	7	0	0	
4	0	0	0	0	0	0	571	22	0	0	
5	0	0	0	0	0	0	551	7	0	0	
6	0	0	0	0	0	0	732	12	0	0	
7	0	0	0	0	0	0	816	15	0	0	
8	0	0	0	0	0	0	783	33	0	0	
9	0	0	0	0	0	0	588	22	0	0	
10	0	0	0	0	0	0	679	27	0	0	
11	0	0	0	0	0	0	648	10	0	0	
12	0	0	0	0	0	0	678	11	0	0	
13	0	0	0	0	0	0	601	9	0	0	
14	0	0	0	0	0	0	647	25	0	0	
15	0	0	0	0	0	0	615	9	0	0	
0	0	0	0	0	0	0	664	27	0	0	
1	0	0	0	0	0	0	595	8	0	0	
2	0	0	0	0	0	0	625	9	0	0	
3	0	0	0	0	0	0	578	22	0	0	
4	0	0	0	0	0	0	670	11	0	0	
5	0	0	0	0	0	0	671	27	0	0	
6	0	0	0	0	0	0	756	31	0	0	
7	0	0	0	0	0	0	738	31	0	0	
8	0	0	0	0	0	0	806	35	0	0	
9	0	0	0	0	0	0	764	13	0	0	
10	0	0	0	0	0	0	819	36	0	0	
11	0	0	0	0	0	0	753	12	0	0	
12	0	0	0	0	0	0	790	14	0	0	
13	0	0	0	0	0	0	711	12	0	0	
14	0	0	0	0	0	0	736	31	0	0	
15	0	0	0	0	0	0	673	11	0	0	
0	0	0	0	0	0	0	700	12	0	0	
1	0	0	0	0	0	0	630	24	0	0	
2	0	0	0	0	0	0	678	27	0	0	
3	0	0	0	0	0	0	633	9	0	0	
4	0	0	0	0	0	0	684	28	0	0	
5	0	0	0	0	0	0	630	24	0	0	
6	0	0	0	0	0	0	669	27	0	0	
7	0	0	0	0	0	0	600	8	0	0	
8	0	0	0	0	0	0	627	24	0	0	
9	0	0	0	0	0	0	577	7	0	0	
10	0	0	0	0	0	0	604	9	0	0	
11	0	0	0	0	0	0	569	22	0	0	
12	0	0	0	0	0	0	639	25	0	0	
13	0	0	0	0	0	0	604	9	0	0	
14	0	0	0	0	0	0	668	11	0	0	
15	0	0	0	0	0	0	636	24	0	0	
0	0	0	0	0	0	0	687	11	0	0	
1	0	0	0	0	0	0	622	9	0	0	
2	0	0	0	0	0	0	625	9	0	0	
3	0	0	0	0	0	0	531	19	0	0	
4	0	0	0	0	0	0	539	7	0	0	
5	0	0	0	0	0	0	508	7	0	0	
6	0	0	0	0	0	0	546	7	0	0	
7	0	0	0	0	0	0	507	7	0	0	
8	0	0	0	0	0	0	553	7	0	0	
9	0	0	0	0	0	0	536	19	0	0	
10	0	0	0	0	0	0	614	24	0	0	
11	0	0	0	0	0	0	615	24	0	0	
12	0	0	0	0	0	0	700	12	0	0	
13	0	0	0	0	0	0	679	28	0	0	
14	0	0	0	0	0	0	728	30	0	0	
15	0	0	0	0	0	0	676	11	0	0	
0	0	0	0	0	0	0	713	29	0	0	
1	0	0	0	0	0	0	652	25	0	0	
2	0	0	0	0	0	0	671	11	0	0	
3	0	0	0	0	0	0	595	23	0	0	
4	0	0	0	0	0	0	636	9	0	0	
5	0	0	0	0	0	0	579	22	0	0	
6	0	0	0	0	0	0	628	24	0	0	
7	0	0	0	0	0	0	582	22	0	0	
8	0	0	0	0	0	0	630	9	0	0	
9	0	0	0	0	0	0	599	23	0	0	
10	0	0	0	0	0	0	632	9	0	0	
11	0	0	0	0	0	0	575	7	0	0	
12	0	0	0	0	0	0	711	29	0	0	
13	0	0	0	0	0	0	804	14	0	0	
14	0	0	0	0	0	0	846	15	0	0	
15	0	0	0	0	0	0	591	8	0	0	
0	0	0	0	0	0	0	659	26	0	0	
1	0	0	0	0	0	0	647	9	0	0	
2	0	0	0	0	0	0	707	29	0	0	
3	0	0	0	0	0	0	662	11	0	0	
4	0	0	0	0	0	0	688	28	0	0	
5	0	0	0	0	0	0	626	9	0	0	
6	0	0	0	0	0	0	671	27	0	0	
7	0	0	0	0	0	0	639	9	0	0	
8	0	0	0	0	0	0	647	25	0	0	
9	0	0	0	0	0	0	573	7	0	0	
10	0	0	0	0	0	0	615	24	0	0	
11	0	0	0	0	0	0	575	22	0	0	
12	0	0	0	0	0	0	633	24	0	0	
13	0	0	0	0	0	0	617	9	0	0	
14	0	0	0	0	0	0	668	11	0	0	
15	0	0	0	0	0	0	630	24	0	0	
0	0	0	0	0	0	0	683	11	0	0	
1	0	0	0	0	0	0	660	11	0	0	
2	0	0	0	0	0	0	707	12	0	0	
3	0	0	0	0	0	0	660	26	0	0	
4	0	0	0	0	0	0	684	11	0	0	
5	0	0	0	0	0	0	608	24	0	0	
6	0	0	0	0	0	0	615	9	0	0	
7	0	0	0	0	0	0	542	19	0	0	
8	0	0	0	0	0	0	575	7	0	0	
9	0	0	0	0	0	0	555	7	0	0	
10	0	0	0	0	0	0	628	9	0	0	
11	0	0	0	0	0	0	615	24	0	0	
12	0	0	0	0	0	0	671	11	0	0	
13	0	0	0	0	0	0	629	9	0	0	
14	0	0	0	0	0	0	659	11	0	0	
15	0	0	0	0	0	0	598	23	0	0	
0	0	0	0	0	0	0	615	9	0	0	
1	0	0	0	0	0	0	553	20	0	0	
2	0	0	0	0	0	0	588	8	0	0	
3	0	0	0	0	0	0	559	7	0	0	
4	0	0	0	0	0	0	601	9	0	0	
5	0	0	0	0	0	0	562	7	0	0	
6	0	0	0	0	0	0	621	9	0	0	
7	0	0	0	0	0	0	627	24	0	0	
8	0	0	0	0	0	0	694	11	0	0	
9	0	0	0	0	0	0	663	11	0	0	
10	0	0	0	0	0	0	721	30	0	0	
11	0	0	0	0	0	0	684	11	0	0	
12	0	0	0	0	0	0	700	12	0	0	
13	0	0	0	0	0	0	636	9	0	0	
14	0	0	0	0	0	0	655	10	0	0	
15	0	0	0	0	0	0	595	8	0	0	
0	0	0	0	0	0	0	611	9	0	0	
1	0	0	0	0	0	0	571	7	0	0	
2	0	0	0	0	0	0	608	24	0	0	
3	0	0	0	0	0	0	611	9	0	0	
4	0	0	0	0	0	0	687	28	0	0	
5	0	0	0	0	0	0	647	10	0	0	
6	0	0	0	0	0	0	716	12	0	0	
7	0	0	0	0	0	0	652	25	0	0	
8	0	0	0	0	0	0	700	28	0	0	
9	0	0	0	0	0	0	647	9	0	0	
10	0	0	0	0	0	0	659	11	0	0	
11	0	0	0	0	0	0	604	9	0	0	
12	0	0	0	0	0	0	616	24	0	0	
13	0	0	0	0	0	0	566	7	0	0	
14	0	0	0	0	0	0	596	8	0	0	
15	0	0	0	0	0	0	574	7	0	0	
0	0	0	0	0	0	0	624	9	0	0	
1	0	0	0	0	0	0	590	23	0	0	
2	0	0	0	0	0	0	604	9	0	0	
3	0	0	0	0	0	0	593	8	0	0	
4	0	0	0	0	0	0	765	13	0	0	
5	0	0	0	0	0	0	825	15	0	0	
6	0	0	0	0	0	0	647	25	0	0	
7	0	0	0	0	0	0	472	7	0	0	
8	0	0	0	0	0	0	487	7	0	0	
9	0	0	0	0	0	0	460	6	0	0	
10	0	0	0	0	0	0	521	7	0	0	
11	0	0	0	0	0	0	417	14	0	0	
12	0	0	0	0	0	0	414	14	0	0	
13	0	0	0	0	0	0	415	5	0	0	
14	0	0	0	0	0	0	448	6	0	0	
15	0	0	0	0	0	0	445	15	0	0	
0	0	0	0	0	0	0	516	7	0	0	
1	0	0	0	0	0	0	428	6	0	0	
2	0	0	0	0	0	0	480	7	0	0	
3	0	0	0	0	0	0	504	7	0	0	
4	0	0	0	0	0	0	605	9	0	0	
5	0	0	0	0	0	0	600	9	0	0	
6	0	0	0	0	0	0	609	9	0	0	
7	0	0	0	0	0	0	582	22	0	0	
8	0	0	0	0	0	0	657	11	0	0	
9	0	0	0	0	0	0	628	9	0	0	
10	0	0	0	0	0	0	671	27	0	0	
11	0	0	0	0	0	0	611	9	0	0	
12	0	0	0	0	0	0	600	9	0	0	
13	0	0	0	0	0	0	600	9	0	0	
14	0	0	0	0	0	0	609	9	0	0	
15	0	0	0	0	0	0	504	18	0	0	
0	0	0	0	0	0	0	535	7	0	0	
1	0	0	0	0	0	0	529	7	0	0	
2	0	0	0	0	0	0	532	19	0	0	
3	0	0	0	0	0	0	505	7	0	0	
4	0	0	0	0	0	0	583	8	0	0	
5	0	0	0	0	0	0	587	8	0	0	
6	0	0	0	0	0	0	681	11	0	0	
7	0	0	0	0	0	0	665	11	0	0	
8	0	0	0	0	0	0	636	9	0	0	
9	0	0	0	0	0	0	575	7	0	0	
10	0	0	0	0	0	0	558	7	0	0	
11	0	0	0	0	0	0	455	6	0	0	
12	0	0	0	0	0	0	467	15	0	0	
13	0	0	0	0	0	0	408	14	0	0	
14	0	0	0	0	0	0	465	15	0	0	
15	0	0	0	0	0	0	432	15	0	0	
0	0	0	0	0	0	0	462	15	0	0	
1	0	0	0	0	0	0	419	5	0	0	
2	0	0	0	0	0	0	428	15	0	0	
3	0	0	0	0	0	0	387	12	0	0	
4	0	0	0	0	0	0	399	4	0	0	
5	0	0	0	0	0	0	349	11	0	0	
6	0	0	0	0	0	0	415	5	0	0	
7	0	0	0	0	0	0	353	3	0	0	
8	0	0	0	0	0	0	429	6	0	0	
9	0	0	0	0	0	0	423	6	0	0	
10	0	0	0	0	0	0	444	6	0	0	
11	0	0	0	0	0	0	473	7	0	0	
12	0	0	0	0	0	0	531	19	0	0	
13	0	0	0	0	0	0	519	7	0	0	
14	0	0	0	0	0	0	526	19	0	0	
15	0	0	0	0	0	0	478	16	0	0	
0	0	0	0	0	0	0	561	7	0	0	
1	0	0	0	0	0	0	553	7	0	0	
2	0	0	0	0	0	0	587	8	0	0	
3	0	0	0	0	0	0	591	8	0	0	
4	0	0	0	0	0	0	647	25	0	0	
5	0	0	0	0	0	0	600	23	0	0	
6	0	0	0	0	0	0	664	11	0	0	
7	0	0	0	0	0	0	637	9	0	0	
8	0	0	0	0	0	0	616	9	0	0	
9	0	0	0	0	0	0	515	7	0	0	
10	0	0	0	0	0	0	550	7	0	0	
11	0	0	0	0	0	0	422	14	0	0	
12	0	0	0	0	0	0	382	12	0	0	
13	0	0	0	0	0	0	451	15	0	0	
14	0	0	0	0	0	0	684	11	0	0	
15	0	0	0	0	0	0	600	23	0	0	
0	0	0	0	0	0	0	448	15	0	0	
1	0	0	0	0	0	0	423	6	0	0	
2	0	0	0	0	0	0	508	7	0	0	
3	0	0	0	0	0	0	467	6	0	0	
4	0	0	0	0	0	0	527	7	0	0	
5	0	0	0	0	0	0	444	6	0	0	
6	0	0	0	0	0	0	480	7	0	0	
7	0	0	0	0	0	0	438	6	0	0	
8	0	0	0	0	0	0	510	18	0	0	
9	0	0	0	0	0	0	420	6	0	0	
10	0	0	0	0	0	0	405	5	0	0	
11	0	0	0	0	0	0	406	5	0	0	
12	0	0	0	0	0	0	510	18	0	0	
13	0	0	0	0	0	0	504	7	0	0	
14	0	0	0	0	0	0	543	7	0	0	
15	0	0	0	0	0	0	617	24	0	0	
0	0	0	0	0	0	0	728	12	0	0	
1	0	0	0	0	0	0	700	12	0	0	
2	0	0	0	0	0	0	756	31	0	0	
3	0	0	0	0	0	0	728	12	0	0	
4	0	0	0	0	0	0	803	35	0	0	
5	0	0	0	0	0	0	707	12	0	0	
6	0	0	0	0	0	0	752	12	0	0	
7	0	0	0	0	0	0	654	10	0	0	
8	0	0	0	0	0	0	654	10	0	0	
9	0	0	0	0	0	0	615	24	0	0	
10	0	0	0	0	0	0	583	7	0	0	
11	0	0	0	0	0	0	504	7	0	0	
12	0	0	0	0	0	0	502	7	0	0	
13	0	0	0	0	0	0	457	6	0	0	
14	0	0	0	0	0	0	519	19	0	0	
15	0	0	0	0	0	0	510	7	0	0	
0	0	0	0	0	0	0	550	20	0	0	
1	0	0	0	0	0	0	508	7	0	0	
2	0	0	0	0	0	0	558	7	0	0	
3	0	0	0	0	0	0	534	7	0	0	
4	0	0	0	0	0	0	530	19	0	0	
5	0	0	0	0	0	0	513	7	0	0	
6	0	0	0	0	0	0	504	18	0	0	
7	0	0	0	0	0	0	388	12	0	0	
8	0	0	0	0	0	0	377	4	0	0	
9	0	0	0	0	0	0	376	4	0	0	
10	0	0	0	0	0	0	451	6	0	0	
11	0	0	0	0	0	0	424	6	0	0	
12	0	0	0	0	0	0	504	7	0	0	
13	0	0	0	0	0	0	531	7	0	0	
14	0	0	0	0	0	0	600	8	0	0	
15	0	0	0	0	0	0	549	7	0	0	
0	0	0	0	0	0	0	586	8	0	0	
1	0	0	0	0	0	0	482	7	0	0	
2	0	0	0	0	0	0	467	15	0	0	
3	0	0	0	0	0	0	376	4	0	0	
4	0	0	0	0	0	0	361	4	0	0	
5	0	0	0	0	0	0	366	4	0	0	
6	0	0	0	0	0	0	437	6	0	0	
7	0	0	0	0	0	0	448	15	0	0	
8	0	0	0	0	0	0	487	7	0	0	
9	0	0	0	0	0	0	432	6	0	0	
10	0	0	0	0	0	0	483	7	0	0	
11	0	0	0	0	0	0	505	7	0	0	
12	0	0	0	0	0	0	547	7	0	0	
13	0	0	0	0	0	0	527	7	0	0	
14	0	0	0	0	0	0	598	8	0	0	
15	0	0	0	0	0	0	577	7	0	0	
0	0	0	0	0	0	0	574	22	0	0	
1	0	0	0	0	0	0	537	7	0	0	
2	0	0	0	0	0	0	595	23	0	0	
3	0	0	0	0	0	0	632	24	0	0	
4	0	0	0	0	0	0	699	12	0	0	
5	0	0	0	0	0	0	431	15	0	0	
6	0	0	0	0	0	0	308	9	0	0	
7	0	0	0	0	0	0	335	3	0	0	
8	0	0	0	0	0	0	419	14	0	0	
9	0	0	0	0	0	0	404	14	0	0	
10	0	0	0	0	0	0	441	6	0	0	
11	0	0	0	0	0	0	465	6	0	0	
12	0	0	0	0	0	0	555	7	0	0	
13	0	0	0	0	0	0	489	7	0	0	
14	0	0	0	0	0	0	551	7	0	0	
15	0	0	0	0	0	0	548	7	0	0	
0	0	0	0	0	0	0	566	7	0	0	
1	0	0	0	0	0	0	536	7	0	0	
2	0	0	0	0	0	0	574	7	0	0	
3	0	0	0	0	0	0	557	20	0	0	
4	0	0	0	0	0	0	583	7	0	0	
5	0	0	0	0	0	0	500	7	0	0	
6	0	0	0	0	0	0	529	7	0	0	
7	0	0	0	0	0	0	583	7	0	0	
8	0	0	0	0	0	0	648	25	0	0	
9	0	0	0	0	0	0	625	9	0	0	
10	0	0	0	0	0	0	706	12	0	0	
11	0	0	0	0	0	0	627	9	0	0	
12	0	0	0	0	0	0	672	11	0	0	
13	0	0	0	0	0	0	566	7	0	0	
14	0	0	0	0	0	0	537	7	0	0	
15	0	0	0	0	0	0	491	17	0	0	
0	0	0	0	0	0	0	467	6	0	0	
1	0	0	0	0	0	0	436	15	0	0	
2	0	0	0	0	0	0	438	6	0	0	
3	0	0	0	0	0	0	399	13	0	0	
4	0	0	0	0	0	0	423	6	0	0	
5	0	0	0	0	0	0	408	14	0	0	
6	0	0	0	0	0	0	504	7	0	0	
7	0	0	0	0	0	0	472	6	0	0	
8	0	0	0	0	0	0	536	7	0	0	
9	0	0	0	0	0	0	572	7	0	0	
10	0	0	0	0	0	0	540	7	0	0	
11	0	0	0	0	0	0	472	6	0	0	
12	0	0	0	0	0	0	436	6	0	0	
13	0	0	0	0	0	0	321	3	0	0	
14	0	0	0	0	0	0	347	11	0	0	
15	0	0	0	0	0	0	307	3	0	0	
0	0	0	0	0	0	0	340	3	0	0	
1	0	0	0	0	0	0	304	9	0	0	
2	0	0	0	0	0	0	353	3	0	0	
3	0	0	0	0	0	0	350	3	0	0	
4	0	0	0	0	0	0	340	3	0	0	
5	0	0	0	0	0	0	283	3	0	0	
6	0	0	0	0	0	0	270	3	0	0	
7	0	0	0	0	0	0	222	1	0	0	
8	0	0	0	0	0	0	219	1	0	0	
9	0	0	0	0	0	0	156	3	0	0	
10	0	0	0	0	0	0	163	3	0	0	
11	0	0	0	0	0	0	152	0	0	0	
12	0	0	0	0	0	0	184	4	0	0	
13	0	0	0	0	0	0	161	0	0	0	
14	0	0	0	0	0	0	236	2	0	0	
15	0	0	0	0	0	0	226	1	0	0	
0	0	0	0	0	0	0	287	3	0	0	
1	0	0	0	0	0	0	265	7	0	0	
2	0	0	0	0	0	0	316	9	0	0	
3	0	0	0	0	0	0	323	3	0	0	
4	0	0	0	0	0	0	412	5	0	0	
5	0	0	0	0	0	0	423	6	0	0	
6	0	0	0	0	0	0	418	14	0	0	
7	0	0	0	0	0	0	242	2	0	0	
8	0	0	0	0	0	0	255	2	0	0	
9	0	0	0	0	0	0	227	1	0	0	
10	0	0	0	0	0	0	300	3	0	0	
11	0	0	0	0	0	0	284	3	0	0	
12	0	0	0	0	0	0	327	3	0	0	
13	0	0	0	0	0	0	407	14	0	0	
14	0	0	0	0	0	0	459	6	0	0	
15	0	0	0	0	0	0	444	6	0	0	
0	0	0	0	0	0	0	446	15	0	0	
1	0	0	0	0	0	0	428	15	0	0	
2	0	0	0	0	0	0	499	7	0	0	
3	0	0	0	0	0	0	468	16	0	0	
4	0	0	0	0	0	0	494	7	0	0	
5	0	0	0	0	0	0	480	7	0	0	
6	0	0	0	0	0	0	523	7	0	0	
7	0	0	0	0	0	0	484	17	0	0	
8	0	0	0	0	0	0	558	20	0	0	
9	0	0	0	0	0	0	580	7	0	0	
10	0	0	0	0	0	0	608	9	0	0	
11	0	0	0	0	0	0	556	20	0	0	
12	0	0	0	0	0	0	517	7	0	0	
13	0	0	0	0	0	0	464	6	0	0	
14	0	0	0	0	0	0	496	7	0	0	
15	0	0	0	0	0	0	436	15	0	0	
0	0	0	0	0	0	0	472	6	0	0	
1	0	0	0	0	0	0	476	7	0	0	
2	0	0	0	0	0	0	480	7	0	0	
3	0	0	0	0	0	0	476	16	0	0	
4	0	0	0	0	0	0	512	7	0	0	
5	0	0	0	0	0	0	472	7	0	0	
6	0	0	0	0	0	0	508	7	0	0	
7	0	0	0	0	0	0	508	18	0	0	
8	0	0	0	0	0	0	504	7	0	0	
9	0	0	0	0	0	0	489	17	0	0	
10	0	0	0	0	0	0	483	7	0	0	
11	0	0	0	0	0	0	467	6	0	0	
12	0	0	0	0	0	0	472	16	0	0	
13	0	0	0	0	0	0	472	6	0	0	
14	0	0	0	0	0	0	483	7	0	0	
15	0	0	0	0	0	0	487	17	0	0	
0	0	0	0	0	0	0	523	7	0	0	
1	0	0	0	0	0	0	515	7	0	0	
2	0	0	0	0	0	0	556	7	0	0	
3	0	0	0	0	0	0	568	7	0	0	
4	0	0	0	0	0	0	619	9	0	0	
5	0	0	0	0	0	0	617	9	0	0	
6	0	0	0	0	0	0	670	11	0	0	
7	0	0	0	0	0	0	664	11	0	0	
8	0	0	0	0	0	0	711	12	0	0	
9	0	0	0	0	0	0	694	11	0	0	
10	0	0	0	0	0	0	718	12	0	0	
11	0	0	0	0	0	0	712	29	0	0	
12	0	0	0	0	0	0	750	31	0	0	
13	0	0	0	0	0	0	721	12	0	0	
14	0	0	0	0	0	0	744	12	0	0	
15	0	0	0	0	0	0	730	30	0	0	
0	0	0	0	0	0	0	752	31	0	0	
1	0	0	0	0	0	0	719	12	0	0	
2	0	0	0	0	0	0	717	12	0	0	
3	0	0	0	0	0	0	753	12	0	0	
4	0	0	0	0	0	0	888	17	0	0	
5	0	0	0	0	0	0	802	35	0	0	
6	0	0	0	0	0	0	633	24	0	0	
7	0	0	0	0	0	0	623	9	0	0	
8	0	0	0	0	0	0	659	26	0	0	
9	0	0	0	0	0	0	659	11	0	0	
10	0	0	0	0	0	0	688	11	0	0	
11	0	0	0	0	0	0	664	27	0	0	
12	0	0	0	0	0	0	684	28	0	0	
13	0	0	0	0	0	0	685	11	0	0	
14	0	0	0	0	0	0	691	28	0	0	
15	0	0	0	0	0	0	663	27	0	0	
0	0	0	0	0	0	0	646	9	0	0	
1	0	0	0	0	0	0	632	9	0	0	
2	0	0	0	0	0	0	652	10	0	0	
3	0	0	0	0	0	0	649	10	0	0	
4	0	0	0	0	0	0	675	27	0	0	
5	0	0	0	0	0	0	668	11	0	0	
6	0	0	0	0	0	0	676	27	0	0	
7	0	0	0	0	0	0	655	10	0	0	
8	0	0	0	0	0	0	655	25	0	0	
9	0	0	0	0	0	0	636	9	0	0	
10	0	0	0	0	0	0	661	11	0	0	
11	0	0	0	0	0	0	630	24	0	0	
12	0	0	0	0	0	0	655	10	0	0	
13	0	0	0	0	0	0	614	24	0	0	
14	0	0	0	0	0	0	651	10	0	0	
15	0	0	0	0	0	0	636	24	0	0	
0	0	0	0	0	0	0	647	10	0	0	
1	0	0	0	0	0	0	636	9	0	0	
2	0	0	0	0	0	0	671	11	0	0	
3	0	0	0	0	0	0	660	26	0	0	
4	0	0	0	0	0	0	668	11	0	0	
5	0	0	0	0	0	0	643	25	0	0	
6	0	0	0	0	0	0	639	9	0	0	
7	0	0	0	0	0	0	627	9	0	0	
8	0	0	0	0	0	0	624	9	0	0	
9	0	0	0	0	0	0	604	23	0	0	
10	0	0	0	0	0	0	623	9	0	0	
11	0	0	0	0	0	0	606	9	0	0	
12	0	0	0	0	0	0	635	9	0	0	
13	0	0	0	0	0	0	620	9	0	0	
14	0	0	0	0	0	0	635	9	0	0	
15	0	0	0	0	0	0	625	9	0	0	
0	0	0	0	0	0	0	635	9	0	0	
1	0	0	0	0	0	0	629	24	0	0	
2	0	0	0	0	0	0	659	11	0	0	
3	0	0	0	0	0	0	643	9	0	0	
4	0	0	0	0	0	0	647	25	0	0	
5	0	0	0	0	0	0	644	25	0	0	
6	0	0	0	0	0	0	647	25	0	0	
7	0	0	0	0	0	0	623	9	0	0	
8	0	0	0	0	0	0	633	24	0	0	
9	0	0	0	0	0	0	611	9	0	0	
10	0	0	0	0	0	0	624	9	0	0	
11	0	0	0	0	0	0	627	24	0	0	
12	0	0	0	0	0	0	632	9	0	0	
13	0	0	0	0	0	0	611	24	0	0	
14	0	0	0	0	0	0	633	24	0	0	
15	0	0	0	0	0	0	604	9	0	0	
0	0	0	0	0	0	0	608	9	0	0	
1	0	0	0	0	0	0	685	11	0	0	
2	0	0	0	0	0	0	830	15	0	0	
3	0	0	0	0	0	0	724	12	0	0	
4	0	0	0	0	0	0	571	22	0	0	
5	0	0	0	0	0	0	556	7	0	0	
6	0	0	0	0	0	0	593	23	0	0	
7	0	0	0	0	0	0	588	8	0	0	
8	0	0	0	0	0	0	638	9	0	0	
9	0	0	0	0	0	0	612	9	0	0	
10	0	0	0	0	0	0	627	9	0	0	
11	0	0	0	0	0	0	615	24	0	0	
12	0	0	0	0	0	0	626	9	0	0	
13	0	0	0	0	0	0	627	24	0	0	
14	0	0	0	0	0	0	620	24	0	0	
15	0	0	0	0	0	0	611	9	0	0	
0	0	0	0	0	0	0	630	9	0	0	
1	0	0	0	0	0	0	624	9	0	0	
2	0	0	0	0	0	0	628	24	0	0	
3	0	0	0	0	0	0	615	24	0	0	
4	0	0	0	0	0	0	617	9	0	0	
5	0	0	0	0	0	0	615	9	0	0	
6	0	0	0	0	0	0	604	23	0	0	
7	0	0	0	0	0	0	609	24	0	0	
8	0	0	0	0	0	0	583	7	0	0	
9	0	0	0	0	0	0	579	22	0	0	
10	0	0	0	0	0	0	618	9	0	0	
11	0	0	0	0	0	0	655	10	0	0	
12	0	0	0	0	0	0	704	12	0	0	
13	0	0	0	0	0	0	742	12	0	0	
14	0	0	0	0	0	0	775	33	0	0	
15	0	0	0	0	0	0	769	13	0	0	
0	0	0	0	0	0	0	763	31	0	0	
1	0	0	0	0	0	0	718	12	0	0	
2	0	0	0	0	0	0	684	11	0	0	
3	0	0	0	0	0	0	642	9	0	0	
4	0	0	0	0	0	0	641	9	0	0	
5	0	0	0	0	0	0	657	11	0	0	
6	0	0	0	0	0	0	675	11	0	0	
7	0	0	0	0	0	0	688	28	0	0	
8	0	0	0	0	0	0	710	12	0	0	
9	0	0	0	0	0	0	722	12	0	0	
10	0	0	0	0	0	0	742	31	0	0	
11	0	0	0	0	0	0	743	12	0	0	
12	0	0	0	0	0	0	737	12	0	0	
13	0	0	0	0	0	0	723	30	0	0	
14	0	0	0	0	0	0	719	30	0	0	
15	0	0	0	0	0	0	707	12	0	0	
0	0	0	0	0	0	0	717	12	0	0	
1	0	0	0	0	0	0	719	30	0	0	
2	0	0	0	0	0	0	735	12	0	0	
3	0	0	0	0	0	0	732	12	0	0	
4	0	0	0	0	0	0	730	12	0	0	
5	0	0	0	0	0	0	726	12	0	0	
6	0	0	0	0	0	0	729	30	0	0	
7	0	0	0	0	0	0	736	31	0	0	
8	0	0	0	0	0	0	747	12	0	0	
9	0	0	0	0	0	0	751	31	0	0	
10	0	0	0	0	0	0	751	12	0	0	
11	0	0	0	0	0	0	737	12	0	0	
12	0	0	0	0	0	0	724	30	0	0	
13	0	0	0	0	0	0	711	12	0	0	
14	0	0	0	0	0	0	671	11	0	0	
15	0	0	0	0	0	0	718	30	0	0	
0	0	0	0	0	0	0	843	38	0	0	
1	0	0	0	0	0	0	900	43	0	0	
2	0	0	0	0	0	0	679	11	0	0	
3	0	0	0	0	0	0	604	9	0	0	
4	0	0	0	0	0	0	643	25	0	0	
5	0	0	0	0	0	0	656	11	0	0	
6	0	0	0	0	0	0	664	11	0	0	
7	0	0	0	0	0	0	639	9	0	0	
8	0	0	0	0	0	0	643	25	0	0	
9	0	0	0	0	0	0	664	27	0	0	
10	0	0	0	0	0	0	679	11	0	0	
11	0	0	0	0	0	0	684	28	0	0	
12	0	0	0	0	0	0	652	10	0	0	
13	0	0	0	0	0	0	636	9	0	0	
14	0	0	0	0	0	0	649	25	0	0	
15	0	0	0	0	0	0	686	11	0	0	
0	0	0	0	0	0	0	692	11	0	0	
1	0	0	0	0	0	0	684	11	0	0	
2	0	0	0	0	0	0	670	11	0	0	
3	0	0	0	0	0	0	659	11	0	0	
4	0	0	0	0	0	0	659	11	0	0	
5	0	0	0	0	0	0	675	11	0	0	
6	0	0	0	0	0	0	675	11	0	0	
7	0	0	0	0	0	0	671	11	0	0	
8	0	0	0	0	0	0	652	10	0	0	
9	0	0	0	0	0	0	632	24	0	0	
10	0	0	0	0	0	0	601	9	0	0	
11	0	0	0	0	0	0	600	23	0	0	
12	0	0	0	0	0	0	611	24	0	0	
13	0	0	0	0	0	0	639	9	0	0	
14	0	0	0	0	0	0	655	10	0	0	
15	0	0	0	0	0	0	655	10	0	0	
0	0	0	0	0	0	0	636	9	0	0	
1	0	0	0	0	0	0	609	24	0	0	
2	0	0	0	0	0	0	575	22	0	0	
3	0	0	0	0	0	0	545	19	0	0	
4	0	0	0	0	0	0	534	7	0	0	
5	0	0	0	0	0	0	540	7	0	0	
6	0	0	0	0	0	0	540	19	0	0	
7	0	0	0	0	0	0	564	7	0	0	
8	0	0	0	0	0	0	583	22	0	0	
9	0	0	0	0	0	0	606	9	0	0	
10	0	0	0	0	0	0	600	23	0	0	
11	0	0	0	0	0	0	596	8	0	0	
12	0	0	0	0	0	0	579	7	0	0	
13	0	0	0	0	0	0	582	7	0	0	
14	0	0	0	0	0	0	559	20	0	0	
15	0	0	0	0	0	0	551	20	0	0	
0	0	0	0	0	0	0	531	19	0	0	
1	0	0	0	0	0	0	529	7	0	0	
2	0	0	0	0	0	0	523	19	0	0	
3	0	0	0	0	0	0	548	20	0	0	
4	0	0	0	0	0	0	568	21	0	0	
5	0	0	0	0	0	0	587	8	0	0	
6	0	0	0	0	0	0	568	21	0	0	
7	0	0	0	0	0	0	551	7	0	0	
8	0	0	0	0	0	0	515	7	0	0	
9	0	0	0	0	0	0	496	17	0	0	
10	0	0	0	0	0	0	448	15	0	0	
11	0	0	0	0	0	0	419	5	0	0	
12	0	0	0	0	0	0	391	4	0	0	
13	0	0	0	0	0	0	377	12	0	0	
14	0	0	0	0	0	0	358	3	0	0	
15	0	0	0	0	0	0	339	3	0	0	
0	0	0	0	0	0	0	313	3	0	0	
1	0	0	0	0	0	0	403	5	0	0	
2	0	0	0	0	0	0	521	19	0	0	
3	0	0	0	0	0	0	428	6	0	0	
4	0	0	0	0	0	0	206	1	0	0	
5	0	0	0	0	0	0	211	1	0	0	
6	0	0	0	0	0	0	231	6	0	0	
7	0	0	0	0	0	0	247	2	0	0	
8	0	0	0	0	0	0	255	2	0	0	
9	0	0	0	0	0	0	277	3	0	0	
10	0	0	0	0	0	0	319	9	0	0	
11	0	0	0	0	0	0	387	4	0	0	
12	0	0	0	0	0	0	428	6	0	0	
13	0	0	0	0	0	0	446	6	0	0	
14	0	0	0	0	0	0	432	6	0	0	
15	0	0	0	0	0	0	444	15	0	0	
0	0	0	0	0	0	0	448	15	0	0	
1	0	0	0	0	0	0	467	15	0	0	
2	0	0	0	0	0	0	448	6	0	0	
3	0	0	0	0	0	0	430	15	0	0	
4	0	0	0	0	0	0	417	14	0	0	
5	0	0	0	0	0	0	459	15	0	0	
6	0	0	0	0	0	0	503	7	0	0	
7	0	0	0	0	0	0	563	7	0	0	
8	0	0	0	0	0	0	580	22	0	0	
9	0	0	0	0	0	0	588	8	0	0	
10	0	0	0	0	0	0	553	7	0	0	
11	0	0	0	0	0	0	526	19	0	0	
12	0	0	0	0	0	0	479	7	0	0	
13	0	0	0	0	0	0	472	6	0	0	
14	0	0	0	0	0	0	454	6	0	0	
15	0	0	0	0	0	0	457	6	0	0	
0	0	0	0	0	0	0	435	15	0	0	
1	0	0	0	0	0	0	423	6	0	0	
2	0	0	0	0	0	0	380	12	0	0	
3	0	0	0	0	0	0	350	3	0	0	
4	0	0	0	0	0	0	321	3	0	0	
5	0	0	0	0	0	0	329	3	0	0	
6	0	0	0	0	0	0	335	11	0	0	
7	0	0	0	0	0	0	368	4	0	0	
8	0	0	0	0	0	0	377	4	0	0	
9	0	0	0	0	0	0	407	5	0	0	
10	0	0	0	0	0	0	399	4	0	0	
11	0	0	0	0	0	0	406	14	0	0	
12	0	0	0	0	0	0	393	13	0	0	
13	0	0	0	0	0	0	421	6	0	0	
14	0	0	0	0	0	0	415	5	0	0	
15	0	0	0	0	0	0	425	6	0	0	
0	0	0	0	0	0	0	391	4	0	0	
1	0	0	0	0	0	0	371	12	0	0	
2	0	0	0	0	0	0	323	3	0	0	
3	0	0	0	0	0	0	300	3	0	0	
4	0	0	0	0	0	0	271	7	0	0	
5	0	0	0	0	0	0	293	8	0	0	
6	0	0	0	0	0	0	316	3	0	0	
7	0	0	0	0	0	0	369	4	0	0	
8	0	0	0	0	0	0	396	4	0	0	
9	0	0	0	0	0	0	440	6	0	0	
10	0	0	0	0	0	0	454	6	0	0	
11	0	0	0	0	0	0	491	7	0	0	
12	0	0	0	0	0	0	496	17	0	0	
13	0	0	0	0	0	0	531	7	0	0	
14	0	0	0	0	0	0	543	7	0	0	
15	0	0	0	0	0	0	591	23	0	0	
0	0	0	0	0	0	0	609	9	0	0	
1	0	0	0	0	0	0	643	25	0	0	
2	0	0	0	0	0	0	639	9	0	0	
3	0	0	0	0	0	0	655	25	0	0	
4	0	0	0	0	0	0	624	9	0	0	
5	0	0	0	0	0	0	617	9	0	0	
6	0	0	0	0	0	0	585	22	0	0	
7	0	0	0	0	0	0	600	9	0	0	
8	0	0	0	0	0	0	575	7	0	0	
9	0	0	0	0	0	0	581	7	0	0	
10	0	0	0	0	0	0	560	7	0	0	
11	0	0	0	0	0	0	591	8	0	0	
12	0	0	0	0	0	0	575	7	0	0	
13	0	0	0	0	0	0	598	23	0	0	
14	0	0	0	0	0	0	568	21	0	0	
15	0	0	0	0	0	0	665	11	0	0	
0	0	0	0	0	0	0	783	33	0	0	
1	0	0	0	0	0	0	769	13	0	0	
2	0	0	0	0	0	0	537	7	0	0	
3	0	0	0	0	0	0	547	7	0	0	
4	0	0	0	0	0	0	568	7	0	0	
5	0	0	0	0	0	0	606	9	0	0	
6	0	0	0	0	0	0	584	22	0	0	
7	0	0	0	0	0	0	593	8	0	0	
8	0	0	0	0	0	0	571	7	0	0	
9	0	0	0	0	0	0	582	7	0	0	
10	0	0	0	0	0	0	540	7	0	0	
11	0	0	0	0	0	0	534	7	0	0	
12	0	0	0	0	0	0	483	7	0	0	
13	0	0	0	0	0	0	485	17	0	0	
14	0	0	0	0	0	0	499	7	0	0	
15	0	0	0	0	0	0	564	7	0	0	
0	0	0	0	0	0	0	568	21	0	0	
1	0	0	0	0	0	0	596	8	0	0	
2	0	0	0	0	0	0	591	8	0	0	
3	0	0	0	0	0	0	636	24	0	0	
4	0	0	0	0	0	0	641	9	0	0	
5	0	0	0	0	0	0	687	11	0	0	
6	0	0	0	0	0	0	667	27	0	0	
7	0	0	0	0	0	0	665	11	0	0	
8	0	0	0	0	0	0	609	24	0	0	
9	0	0	0	0	0	0	579	7	0	0	
10	0	0	0	0	0	0	539	7	0	0	
11	0	0	0	0	0	0	547	7	0	0	
12	0	0	0	0	0	0	526	19	0	0	
13	0	0	0	0	0	0	561	20	0	0	
14	0	0	0	0	0	0	547	7	0	0	
15	0	0	0	0	0	0	547	7	0	0	
0	0	0	0	0	0	0	488	7	0	0	
1	0	0	0	0	0	0	467	15	0	0	
2	0	0	0	0	0	0	408	5	0	0	
3	0	0	0	0	0	0	369	4	0	0	
4	0	0	0	0	0	0	312	9	0	0	
5	0	0	0	0	0	0	243	2	0	0	
6	0	0	0	0	0	0	175	1	0	0	
7	0	0	0	0	0	0	105	1	0	0	
8	0	0	0	0	0	0	51	0	0	0	
9	0	0	0	0	0	0	0	0	0	0	
10	0	0	0	0	0	0	0	0	0	0	
11	0	0	0	0	0	0	0	0	0	0	
12	0	0	0	0	0	0	0	0	0	0	
13	0	0	0	0	0	0	0	0	0	0	
14	0	0	0	0	0	0	0	0	0	0	
15	0	0	0	0	0	0	0	0	0	0	
0	0	0	0	0	0	0	0	0	0	0	
1	0	0	0	0	0	0	0	0	0	0	
2	0	0	0	0	0	0	0	0	0	0	
3	0	0	0	0	0	0	0	0	0	0	
4	0	0	0	0	0	0	0	0	0	0	
5	0	0	0	0	0	0	0	0	0	0	
6	0	0	0	0	0	0	0	0	0	0	
7	0	0	0	0	0	0	0	0	0	0	
8	0	0	0	0	0	0	0	0	0	0	
9	0	0	0	0	0	0	0	0	0	0	
10	0	0	0	0	0	0	0	0	0	0	
11	0	0	0	0	0	0	0	0	0	0	
12	0	0	0	0	0	0	0	0	0	0	
13	0	0	0	0	0	0	0	0	0	0	
14	0	0	0	0	0	0	0	0	0	0	
15	0	0	0	0	0	0	0	0	0	0	
0	0	0	0	0	0	0	0	0	0	0	
1	0	0	0	0	0	0	0	0	0	0	
2	0	0	0	0	0	0	0	0	0	0	
3	0	0	0	0	0	0	0	0	0	0	
4	0	0	0	0	0	0	0	0	0	0	
5	0	0	0	0	0	0	0	0	0	0	
6	0	0	0	0	0	0	0	0	0	0	
7	0	0	0	0	0	0	15	0	0	0	
8	0	0	0	0	0	0	305	3	0	0	
9	0	0	0	0	0	0	307	3	0	0	
10	0	0	0	0	0	0	595	8	0	0	
11	0	0	0	0	0	0	702	12	0	0	
12	0	0	0	0	0	0	956	19	0	0	
13	0	0	0	0	0	0	956	19	0	0	
14	0	0	0	0	0	0	957	19	0	0	
15	0	0	0	0	0	0	957	19	0	0	
0	0	0	0	0	0	0	957	19	0	0	
1	0	0	0	0	0	0	957	47	0	0	
2	0	0	0	0	0	0	957	19	0	0	
3	0	0	0	0	0	0	957	19	0	0	
4	0	0	0	0	0	0	957	19	0	0	
5	0	0	0	0	0	0	957	19	0	0	
6	0	0	0	0	0	0	957	19	0	0	
7	0	0	0	0	0	0	956	19	0	0	
8	0	0	0	0	0	0	957	19	0	0	
9	0	0	0	0	0	0	956	19	0	0	
10	0	0	0	0	0	0	957	19	0	0	
11	0	0	0	0	0	0	957	19	0	0	
12	0	0	0	0	0	0	958	47	0	0	
13	0	0	0	0	0	0	958	47	0	0	
14	0	0	0	0	0	0	960	19	0	0	
15	0	0	0	0	0	0	960	19	0	0	
0	0	0	0	0	0	0	960	19	0	0	
1	0	0	0	0	0	0	961	19	0	0	
2	0	0	0	0	0	0	961	19	0	0	
3	0	0	0	0	0	0	961	47	0	0	
4	0	0	0	0	0	0	961	19	0	0	
5	0	0	0	0	0	0	961	48	0	0	
6	0	0	0	0	0	0	664	11	0	0	
7	0	0	0	0	0	0	480	7	0	0	
8	0	0	0	0	0	0	467	6	0	0	
9	0	0	0	0	0	0	251	2	0	0	
10	0	0	0	0	0	0	307	9	0	0	
11	0	0	0	0	0	0	140	0	0	0	
12	0	0	0	0	0	0	248	2	0	0	
13	0	0	0	0	0	0	115	0	0	0	
14	0	0	0	0	0	0	235	1	0	0	
15	0	0	0	0	0	0	126	3	0	0	
0	0	0	0	0	0	0	252	2	0	0	
1	0	0	0	0	0	0	145	3	0	0	
2	0	0	0	0	0	0	313	3	0	0	
3	0	0	0	0	0	0	243	2	0	0	
4	0	0	0	0	0	0	406	14	0	0	
5	0	0	0	0	0	0	335	3	0	0	
6	0	0	0	0	0	0	515	19	0	0	
7	0	0	0	0	0	0	494	7	0	0	
8	0	0	0	0	0	0	707	12	0	0	
9	0	0	0	0	0	0	716	12	0	0	
10	0	0	0	0	0	0	947	46	0	0	
11	0	0	0	0	0	0	942	19	0	0	
12	0	0	0	0	0	0	963	19	0	0	
13	0	0	0	0	0	0	963	48	0	0	
14	0	0	0	0	0	0	963	19	0	0	
15	0	0	0	0	0	0	963	19	0	0	
0	0	0	0	0	0	0	963	19	0	0	
1	0	0	0	0	0	0	963	19	0	0	
2	0	0	0	0	0	0	963	19	0	0	
3	0	0	0	0	0	0	963	19	0	0	
4	0	0	0	0	0	0	963	19	0	0	
5	0	0	0	0	0	0	963	19	0	0	
6	0	0	0	0	0	0	963	19	0	0	
7	0	0	0	0	0	0	963	48	0	0	
8	0	0	0	0	0	0	963	19	0	0	
9	0	0	0	0	0	0	963	48	0	0	
10	0	0	0	0	0	0	963	48	0	0	
11	0	0	0	0	0	0	963	19	0	0	
12	0	0	0	0	0	0	963	48	0	0	
13	0	0	0	0	0	0	963	19	0	0	
14	0	0	0	0	0	0	963	19	0	0	
15	0	0	0	0	0	0	963	48	0	0	
0	0	0	0	0	0	0	963	19	0	0	
1	0	0	0	0	0	0	963	19	0	0	
2	0	0	0	0	0	0	963	19	0	0	
3	0	0	0	0	0	0	963	48	0	0	
4	0	0	0	0	0	0	963	19	0	0	
5	0	0	0	0	0	0	963	19	0	0	
6	0	0	0	0	0	0	963	48	0	0	
7	0	0	0	0	0	0	963	48	0	0	
8	0	0	0	0	0	0	963	19	0	0	
9	0	0	0	0	0	0	963	19	0	0	
10	0	0	0	0	0	0	963	19	0	0	
11	0	0	0	0	0	0	963	48	0	0	
12	0	0	0	0	0	0	963	19	0	0	
13	0	0	0	0	0	0	963	19	0	0	
14	0	0	0	0	0	0	963	19	0	0	
15	0	0	0	0	0	0	963	48	0	0	
0	0	0	0	0	0	0	963	19	0	0	
1	0	0	0	0	0	0	963	48	0	0	
2	0	0	0	0	0	0	963	19	0	0	
3	0	0	0	0	0	0	963	19	0	0	
4	0	0	0	0	0	0	963	48	0	0	
5	0	0	0	0	0	0	963	48	0	0	
6	0	0	0	0	0	0	963	19	0	0	
7	0	0	0	0	0	0	963	19	0	0	
8	0	0	0	0	0	0	963	19	0	0	
9	0	0	0	0	0	0	963	19	0	0	
10	0	0	0	0	0	0	963	19	0	0	
11	0	0	0	0	0	0	963	19	0	0	
12	0	0	0	0	0	0	963	19	0	0	
13	0	0	0	0	0	0	963	19	0	0	
14	0	0	0	0	0	0	888	41	0	0	
15	0	0	0	0	0	0	743	31	0	0	
0	0	0	0	0	0	0	660	11	0	0	
1	0	0	0	0	0	0	600	8	0	0	
2	0	0	0	0	0	0	495	7	0	0	
3	0	0	0	0	0	0	496	17	0	0	
4	0	0	0	0	0	0	451	6	0	0	
5	0	0	0	0	0	0	493	7	0	0	
6	0	0	0	0	0	0	459	6	0	0	
7	0	0	0	0	0	0	504	7	0	0	
8	0	0	0	0	0	0	462	15	0	0	
9	0	0	0	0	0	0	491	7	0	0	
10	0	0	0	0	0	0	444	15	0	0	
11	0	0	0	0	0	0	470	16	0	0	
12	0	0	0	0	0	0	412	5	0	0	
13	0	0	0	0	0	0	440	6	0	0	
14	0	0	0	0	0	0	384	4	0	0	
15	0	0	0	0	0	0	419	14	0	0	
0	0	0	0	0	0	0	367	4	0	0	
1	0	0	0	0	0	0	387	12	0	0	
2	0	0	0	0	0	0	313	3	0	0	
3	0	0	0	0	0	0	307	9	0	0	
4	0	0	0	0	0	0	208	1	0	0	
5	0	0	0	0	0	0	176	3	0	0	
6	0	0	0	0	0	0	56	0	0	0	
7	0	0	0	0	0	0	15	0	0	0	
8	0	0	0	0	0	0	0	0	0	0	
9	0	0	0	0	0	0	0	0	0	0	
10	0	0	0	0	0	0	0	0	0	0	
11	0	0	0	0	0	0	0	0	0	0	
12	0	0	0	0	0	0	27	0	0	0	
13	0	0	0	0	0	0	234	1	0	0	
14	0	0	0	0	0	0	191	4	0	0	
15	0	0	0	0	0	0	280	3	0	0	
0	0	0	0	0	0	0	251	2	0	0	
1	0	0	0	0	0	0	280	3	0	0	
2	0	0	0	0	0	0	222	6	0	0	
3	0	0	0	0	0	0	255	2	0	0	
4	0	0	0	0	0	0	226	6	0	0	
5	0	0	0	0	0	0	295	8	0	0	
6	0	0	0	0	0	0	304	9	0	0	
7	0	0	0	0	0	0	403	4	0	0	
8	0	0	0	0	0	0	408	5	0	0	
9	0	0	0	0	0	0	489	17	0	0	
10	0	0	0	0	0	0	480	7	0	0	
11	0	0	0	0	0	0	563	7	0	0	
12	0	0	0	0	0	0	561	7	0	0	
13	0	0	0	0	0	0	604	9	0	0	
14	0	0	0	0	0	0	588	8	0	0	
15	0	0	0	0	0	0	739	31	0	0	
0	0	0	0	0	0	0	760	13	0	0	
1	0	0	0	0	0	0	551	20	0	0	
2	0	0	0	0	0	0	336	11	0	0	
3	0	0	0	0	0	0	337	3	0	0	
4	0	0	0	0	0	0	209	1	0	0	
5	0	0	0	0	0	0	156	3	0	0	
6	0	0	0	0	0	0	27	0	0	0	
7	0	0	0	0	0	0	0	0	0	0	
8	0	0	0	0	0	0	0	0	0	0	
9	0	0	0	0	0	0	0	0	0	0	
10	0	0	0	0	0	0	0	0	0	0	
11	0	0	0	0	0	0	0	0	0	0	
12	0	0	0	0	0	0	0	0	0	0	
13	0	0	0	0	0	0	0	0	0	0	
14	0	0	0	0	0	0	0	0	0	0	
15	0	0	0	0	0	0	137	0	0	0	
0	0	0	0	0	0	0	131	3	0	0	
1	0	0	0	0	0	0	152	3	0	0	
2	0	0	0	0	0	0	95	0	0	0	
3	0	0	0	0	0	0	129	0	0	0	
4	0	0	0	0	0	0	67	0	0	0	
5	0	0	0	0	0	0	96	0	0	0	
6	0	0	0	0	0	0	41	0	0	0	
7	0	0	0	0	0	0	69	0	0	0	
8	0	0	0	0	0	0	11	0	0	0	
9	0	0	0	0	0	0	39	0	0	0	
10	0	0	0	0	0	0	0	0	0	0	
11	0	0	0	0	0	0	39	0	0	0	
12	0	0	0	0	0	0	12	0	0	0	
13	0	0	0	0	0	0	76	1	0	0	
14	0	0	0	0	0	0	28	0	0	0	
15	0	0	0	0	0	0	71	1	0	0	
0	0	0	0	0	0	0	3	0	0	0	
1	0	0	0	0	0	0	9	0	0	0	
2	0	0	0	0	0	0	0	0	0	0	
3	0	0	0	0	0	0	0	0	0	0	
4	0	0	0	0	0	0	0	0	0	0	
5	0	0	0	0	0	0	0	0	0	0	
6	0	0	0	0	0	0	0	0	0	0	
7	0	0	0	0	0	0	0	0	0	0	
8	0	0	0	0	0	0	0	0	0	0	
9	0	0	0	0	0	0	0	0	0	0	
10	0	0	0	0	0	0	0	0	0	0	
11	0	0	0	0	0	0	0	0	0	0	
12	0	0	0	0	0	0	0	0	0	0	
13	0	0	0	0	0	0	0	0	0	0	
14	0	0	0	0	0	0	0	0	0	0	
15	0	0	0	0	0	0	0	0	0	0	
0	0	0	0	0	0	0	0	0	0	0	
1	0	0	0	0	0	0	0	0	0	0	
2	0	0	0	0	0	0	0	0	0	0	
3	0	0	0	0	0	0	9	0	0	0	
4	0	0	0	0	0	0	57	0	0	0	
5	0	0	0	0	0	0	163	3	0	0	
6	0	0	0	0	0	0	182	1	0	0	
7	0	0	0	0	0	0	289	3	0	0	
8	0	0	0	0	0	0	294	3	0	0	
9	0	0	0	0	0	0	387	12	0	0	
10	0	0	0	0	0	0	401	4	0	0	
11	0	0	0	0	0	0	487	17	0	0	
12	0	0	0	0	0	0	473	7	0	0	
13	0	0	0	0	0	0	553	20	0	0	
14	0	0	0	0	0	0	543	7	0	0	
15	0	0	0	0	0	0	632	24	0	0	
0	0	0	0	0	0	0	636	24	0	0	
1	0	0	0	0	0	0	723	12	0	0	
2	0	0	0	0	0	0	707	12	0	0	
3	0	0	0	0	0	0	769	13	0	0	
4	0	0	0	0	0	0	715	12	0	0	
5	0	0	0	0	0	0	702	12	0	0	
6	0	0	0	0	0	0	556	20	0	0	
7	0	0	0	0	0	0	543	7	0	0	
8	0	0	0	0	0	0	524	7	0	0	
9	0	0	0	0	0	0	620	9	0	0	
10	0	0	0	0	0	0	417	14	0	0	
11	0	0	0	0	0	0	340	3	0	0	
12	0	0	0	0	0	0	340	3	0	0	
13	0	0	0	0	0	0	446	6	0	0	
14	0	0	0	0	0	0	455	6	0	0	
15	0	0	0	0	0	0	531	19	0	0	
0	0	0	0	0	0	0	494	7	0	0	
1	0	0	0	0	0	0	551	20	0	0	
2	0	0	0	0	0	0	502	7	0	0	
3	0	0	0	0	0	0	534	7	0	0	
4	0	0	0	0	0	0	440	6	0	0	
5	0	0	0	0	0	0	462	6	0	0	
6	0	0	0	0	0	0	403	13	0	0	
7	0	0	0	0	0	0	492	7	0	0	
8	0	0	0	0	0	0	492	7	0	0	
9	0	0	0	0	0	0	588	8	0	0	
10	0	0	0	0	0	0	597	8	0	0	
11	0	0	0	0	0	0	688	28	0	0	
12	0	0	0	0	0	0	696	12	0	0	
13	0	0	0	0	0	0	785	14	0	0	
14	0	0	0	0	0	0	784	14	0	0	
15	0	0	0	0	0	0	831	15	0	0	
0	0	0	0	0	0	0	807	14	0	0	
1	0	0	0	0	0	0	836	15	0	0	
2	0	0	0	0	0	0	787	14	0	0	
3	0	0	0	0	0	0	804	14	0	0	
4	0	0	0	0	0	0	736	12	0	0	
5	0	0	0	0	0	0	755	13	0	0	
6	0	0	0	0	0	0	684	28	0	0	
7	0	0	0	0	0	0	684	11	0	0	
8	0	0	0	0	0	0	595	23	0	0	
9	0	0	0	0	0	0	604	9	0	0	
10	0	0	0	0	0	0	540	7	0	0	
11	0	0	0	0	0	0	580	22	0	0	
12	0	0	0	0	0	0	553	20	0	0	
13	0	0	0	0	0	0	620	9	0	0	
14	0	0	0	0	0	0	591	23	0	0	
15	0	0	0	0	0	0	647	25	0	0	
0	0	0	0	0	0	0	623	9	0	0	
1	0	0	0	0	0	0	668	27	0	0	
2	0	0	0	0	0	0	616	24	0	0	
3	0	0	0	0	0	0	665	27	0	0	
4	0	0	0	0	0	0	615	9	0	0	
5	0	0	0	0	0	0	664	11	0	0	
6	0	0	0	0	0	0	631	9	0	0	
7	0	0	0	0	0	0	691	11	0	0	
8	0	0	0	0	0	0	684	11	0	0	
9	0	0	0	0	0	0	760	31	0	0	
10	0	0	0	0	0	0	757	31	0	0	
11	0	0	0	0	0	0	839	15	0	0	
12	0	0	0	0	0	0	820	36	0	0	
13	0	0	0	0	0	0	867	39	0	0	
14	0	0	0	0	0	0	833	38	0	0	
15	0	0	0	0	0	0	865	15	0	0	
0	0	0	0	0	0	0	811	15	0	0	
1	0	0	0	0	0	0	830	15	0	0	
2	0	0	0	0	0	0	774	13	0	0	
3	0	0	0	0	0	0	803	14	0	0	
4	0	0	0	0	0	0	748	12	0	0	
5	0	0	0	0	0	0	785	14	0	0	
6	0	0	0	0	0	0	732	12	0	0	
7	0	0	0	0	0	0	766	13	0	0	
8	0	0	0	0	0	0	716	12	0	0	
9	0	0	0	0	0	0	740	31	0	0	
10	0	0	0	0	0	0	681	11	0	0	
11	0	0	0	0	0	0	702	12	0	0	
12	0	0	0	0	0	0	644	25	0	0	
13	0	0	0	0	0	0	689	28	0	0	
14	0	0	0	0	0	0	641	9	0	0	
15	0	0	0	0	0	0	683	11	0	0	
0	0	0	0	0	0	0	620	9	0	0	
1	0	0	0	0	0	0	635	9	0	0	
2	0	0	0	0	0	0	644	9	0	0	
3	0	0	0	0	0	0	824	36	0	0	
4	0	0	0	0	0	0	803	35	0	0	
5	0	0	0	0	0	0	625	9	0	0	
6	0	0	0	0	0	0	544	7	0	0	
7	0	0	0	0	0	0	632	9	0	0	
8	0	0	0	0	0	0	615	24	0	0	
9	0	0	0	0	0	0	687	11	0	0	
10	0	0	0	0	0	0	657	25	0	0	
11	0	0	0	0	0	0	715	30	0	0	
12	0	0	0	0	0	0	685	11	0	0	
13	0	0	0	0	0	0	743	31	0	0	
14	0	0	0	0	0	0	684	11	0	0	
15	0	0	0	0	0	0	704	12	0	0	
0	0	0	0	0	0	0	647	25	0	0	
1	0	0	0	0	0	0	700	28	0	0	
2	0	0	0	0	0	0	673	27	0	0	
3	0	0	0	0	0	0	739	12	0	0	
4	0	0	0	0	0	0	694	28	0	0	
5	0	0	0	0	0	0	740	31	0	0	
6	0	0	0	0	0	0	704	12	0	0	
7	0	0	0	0	0	0	761	13	0	0	
8	0	0	0	0	0	0	707	29	0	0	
9	0	0	0	0	0	0	743	31	0	0	
10	0	0	0	0	0	0	670	11	0	0	
11	0	0	0	0	0	0	681	11	0	0	
12	0	0	0	0	0	0	583	7	0	0	
13	0	0	0	0	0	0	617	9	0	0	
14	0	0	0	0	0	0	537	19	0	0	
15	0	0	0	0	0	0	587	8	0	0	
0	0	0	0	0	0	0	531	7	0	0	
1	0	0	0	0	0	0	588	8	0	0	
2	0	0	0	0	0	0	545	7	0	0	
3	0	0	0	0	0	0	617	12	0	0	
4	0	0	0	0	0	0	549	7	0	0	
5	0	0	0	0	0	0	615	24	0	0	
6	0	0	0	0	0	0	567	7	0	0	
7	0	0	0	0	0	0	625	9	0	0	
8	0	0	0	0	0	0	552	20	0	0	
9	0	0	0	0	0	0	606	24	0	0	
10	0	0	0	0	0	0	537	7	0	0	
11	0	0	0	0	0	0	595	23	0	0	
12	0	0	0	0	0	0	536	19	0	0	
13	0	0	0	0	0	0	601	23	0	0	
14	0	0	0	0	0	0	547	7	0	0	
15	0	0	0	0	0	0	619	24	0	0	
0	0	0	0	0	0	0	575	7	0	0	
1	0	0	0	0	0	0	647	10	0	0	
2	0	0	0	0	0	0	595	23	0	0	
3	0	0	0	0	0	0	659	11	0	0	
4	0	0	0	0	0	0	601	23	0	0	
5	0	0	0	0	0	0	662	26	0	0	
6	0	0	0	0	0	0	593	8	0	0	
7	0	0	0	0	0	0	636	9	0	0	
8	0	0	0	0	0	0	551	7	0	0	
9	0	0	0	0	0	0	591	8	0	0	
10	0	0	0	0	0	0	504	7	0	0	
11	0	0	0	0	0	0	535	7	0	0	
12	0	0	0	0	0	0	463	15	0	0	
13	0	0	0	0	0	0	515	19	0	0	
14	0	0	0	0	0	0	448	6	0	0	
15	0	0	0	0	0	0	508	7	0	0	
0	0	0	0	0	0	0	448	15	0	0	
1	0	0	0	0	0	0	518	19	0	0	
2	0	0	0	0	0	0	467	6	0	0	
3	0	0	0	0	0	0	530	19	0	0	
4	0	0	0	0	0	0	476	7	0	0	
5	0	0	0	0	0	0	536	7	0	0	
6	0	0	0	0	0	0	455	6	0	0	
7	0	0	0	0	0	0	487	7	0	0	
8	0	0	0	0	0	0	399	4	0	0	
9	0	0	0	0	0	0	431	15	0	0	
10	0	0	0	0	0	0	375	12	0	0	
11	0	0	0	0	0	0	448	6	0	0	
12	0	0	0	0	0	0	408	14	0	0	
13	0	0	0	0	0	0	503	7	0	0	
14	0	0	0	0	0	0	472	6	0	0	
15	0	0	0	0	0	0	547	7	0	0	
0	0	0	0	0	0	0	513	7	0	0	
1	0	0	0	0	0	0	704	28	0	0	
2	0	0	0	0	0	0	798	35	0	0	
3	0	0	0	0	0	0	788	14	0	0	
4	0	0	0	0	0	0	512	18	0	0	
5	0	0	0	0	0	0	577	22	0	0	
6	0	0	0	0	0	0	513	7	0	0	
7	0	0	0	0	0	0	560	20	0	0	
8	0	0	0	0	0	0	480	7	0	0	
9	0	0	0	0	0	0	518	7	0	0	
10	0	0	0	0	0	0	446	15	0	0	
11	0	0	0	0	0	0	530	19	0	0	
12	0	0	0	0	0	0	480	7	0	0	
13	0	0	0	0	0	0	540	7	0	0	
14	0	0	0	0	0	0	476	7	0	0	
15	0	0	0	0	0	0	551	7	0	0	
0	0	0	0	0	0	0	518	19	0	0	
1	0	0	0	0	0	0	583	7	0	0	
2	0	0	0	0	0	0	518	7	0	0	
3	0	0	0	0	0	0	563	7	0	0	
4	0	0	0	0	0	0	476	7	0	0	
5	0	0	0	0	0	0	531	19	0	0	
6	0	0	0	0	0	0	466	15	0	0	
7	0	0	0	0	0	0	513	19	0	0	
8	0	0	0	0	0	0	440	15	0	0	
9	0	0	0	0	0	0	497	7	0	0	
10	0	0	0	0	0	0	422	6	0	0	
11	0	0	0	0	0	0	480	17	0	0	
12	0	0	0	0	0	0	424	14	0	0	
13	0	0	0	0	0	0	497	17	0	0	
14	0	0	0	0	0	0	448	15	0	0	
15	0	0	0	0	0	0	518	19	0	0	
0	0	0	0	0	0	0	454	6	0	0	
1	0	0	0	0	0	0	505	7	0	0	
2	0	0	0	0	0	0	419	5	0	0	
3	0	0	0	0	0	0	467	6	0	0	
4	0	0	0	0	0	0	399	13	0	0	
5	0	0	0	0	0	0	463	6	0	0	
6	0	0	0	0	0	0	412	5	0	0	
7	0	0	0	0	0	0	492	7	0	0	
8	0	0	0	0	0	0	447	6	0	0	
9	0	0	0	0	0	0	531	7	0	0	
10	0	0	0	0	0	0	486	7	0	0	
11	0	0	0	0	0	0	562	7	0	0	
12	0	0	0	0	0	0	504	7	0	0	
13	0	0	0	0	0	0	566	21	0	0	
14	0	0	0	0	0	0	495	17	0	0	
15	0	0	0	0	0	0	542	7	0	0	
0	0	0	0	0	0	0	462	6	0	0	
1	0	0	0	0	0	0	515	19	0	0	
2	0	0	0	0	0	0	448	6	0	0	
3	0	0	0	0	0	0	523	7	0	0	
4	0	0	0	0	0	0	470	6	0	0	
5	0	0	0	0	0	0	547	7	0	0	
6	0	0	0	0	0	0	496	17	0	0	
7	0	0	0	0	0	0	568	21	0	0	
8	0	0	0	0	0	0	497	7	0	0	
9	0	0	0	0	0	0	560	7	0	0	
10	0	0	0	0	0	0	492	7	0	0	
11	0	0	0	0	0	0	555	20	0	0	
12	0	0	0	0	0	0	489	7	0	0	
13	0	0	0	0	0	0	556	20	0	0	
14	0	0	0	0	0	0	487	7	0	0	
15	0	0	0	0	0	0	563	7	0	0	
0	0	0	0	0	0	0	512	7	0	0	
1	0	0	0	0	0	0	590	23	0	0	
2	0	0	0	0	0	0	534	19	0	0	
3	0	0	0	0	0	0	609	24	0	0	
4	0	0	0	0	0	0	543	19	0	0	
5	0	0	0	0	0	0	601	23	0	0	
6	0	0	0	0	0	0	520	7	0	0	
7	0	0	0	0	0	0	569	7	0	0	
8	0	0	0	0	0	0	486	17	0	0	
9	0	0	0	0	0	0	536	7	0	0	
10	0	0	0	0	0	0	460	6	0	0	
11	0	0	0	0	0	0	524	19	0	0	
12	0	0	0	0	0	0	465	6	0	0	
13	0	0	0	0	0	0	531	19	0	0	
14	0	0	0	0	0	0	444	15	0	0	
15	0	0	0	0	0	0	577	7	0	0	
0	0	0	0	0	0	0	664	11	0	0	
1	0	0	0	0	0	0	801	14	0	0	
2	0	0	0	0	0	0	497	7	0	0	
3	0	0	0	0	0	0	511	18	0	0	
4	0	0	0	0	0	0	463	6	0	0	
5	0	0	0	0	0	0	521	7	0	0	
6	0	0	0	0	0	0	455	6	0	0	
7	0	0	0	0	0	0	512	18	0	0	
8	0	0	0	0	0	0	446	6	0	0	
9	0	0	0	0	0	0	515	7	0	0	
10	0	0	0	0	0	0	446	6	0	0	
11	0	0	0	0	0	0	499	7	0	0	
12	0	0	0	0	0	0	415	5	0	0	
13	0	0	0	0	0	0	476	7	0	0	
14	0	0	0	0	0	0	425	6	0	0	
15	0	0	0	0	0	0	519	7	0	0	
0	0	0	0	0	0	0	472	7	0	0	
1	0	0	0	0	0	0	543	7	0	0	
2	0	0	0	0	0	0	486	7	0	0	
3	0	0	0	0	0	0	556	7	0	0	
4	0	0	0	0	0	0	491	17	0	0	
5	0	0	0	0	0	0	553	20	0	0	
6	0	0	0	0	0	0	473	7	0	0	
7	0	0	0	0	0	0	531	7	0	0	
8	0	0	0	0	0	0	455	6	0	0	
9	0	0	0	0	0	0	519	7	0	0	
10	0	0	0	0	0	0	454	6	0	0	
11	0	0	0	0	0	0	531	19	0	0	
12	0	0	0	0	0	0	487	7	0	0	
13	0	0	0	0	0	0	582	7	0	0	
14	0	0	0	0	0	0	519	7	0	0	
15	0	0	0	0	0	0	588	8	0	0	
0	0	0	0	0	0	0	508	18	0	0	
1	0	0	0	0	0	0	556	7	0	0	
2	0	0	0	0	0	0	471	16	0	0	
3	0	0	0	0	0	0	521	7	0	0	
4	0	0	0	0	0	0	440	6	0	0	
5	0	0	0	0	0	0	489	7	0	0	
6	0	0	0	0	0	0	422	14	0	0	
7	0	0	0	0	0	0	499	7	0	0	
8	0	0	0	0	0	0	447	6	0	0	
9	0	0	0	0	0	0	529	7	0	0	
10	0	0	0	0	0	0	472	7	0	0	
11	0	0	0	0	0	0	543	7	0	0	
12	0	0	0	0	0	0	472	16	0	0	
13	0	0	0	0	0	0	524	7	0	0	
14	0	0	0	0	0	0	435	15	0	0	
15	0	0	0	0	0	0	496	7	0	0	
0	0	0	0	0	0	0	423	6	0	0	
1	0	0	0	0	0	0	494	7	0	0	
2	0	0	0	0	0	0	420	6	0	0	
3	0	0	0	0	0	0	492	7	0	0	
4	0	0	0	0	0	0	440	6	0	0	
5	0	0	0	0	0	0	524	7	0	0	
6	0	0	0	0	0	0	460	6	0	0	
7	0	0	0	0	0	0	527	19	0	0	
8	0	0	0	0	0	0	451	6	0	0	
9	0	0	0	0	0	0	505	7	0	0	
10	0	0	0	0	0	0	423	6	0	0	
11	0	0	0	0	0	0	487	7	0	0	
12	0	0	0	0	0	0	415	5	0	0	
13	0	0	0	0	0	0	487	17	0	0	
14	0	0	0	0	0	0	423	6	0	0	
15	0	0	0	0	0	0	502	7	0	0	
0	0	0	0	0	0	0	444	6	0	0	
1	0	0	0	0	0	0	519	7	0	0	
2	0	0	0	0	0	0	453	15	0	0	
3	0	0	0	0	0	0	527	7	0	0	
4	0	0	0	0	0	0	464	6	0	0	
5	0	0	0	0	0	0	537	7	0	0	
6	0	0	0	0	0	0	463	6	0	0	
7	0	0	0	0	0	0	516	19	0	0	
8	0	0	0	0	0	0	428	15	0	0	
9	0	0	0	0	0	0	487	7	0	0	
10	0	0	0	0	0	0	406	14	0	0	
11	0	0	0	0	0	0	457	15	0	0	
12	0	0	0	0	0	0	384	12	0	0	
13	0	0	0	0	0	0	455	15	0	0	
14	0	0	0	0	0	0	393	13	0	0	
15	0	0	0	0	0	0	454	15	0	0	
0	0	0	0	0	0	0	398	13	0	0	
1	0	0	0	0	0	0	583	7	0	0	
2	0	0	0	0	0	0	639	9	0	0	
3	0	0	0	0	0	0	578	7	0	0	
4	0	0	0	0	0	0	317	3	0	0	
5	0	0	0	0	0	0	368	4	0	0	
6	0	0	0	0	0	0	275	3	0	0	
7	0	0	0	0	0	0	342	3	0	0	
8	0	0	0	0	0	0	275	3	0	0	
9	0	0	0	0	0	0	358	3	0	0	
10	0	0	0	0	0	0	307	3	0	0	
11	0	0	0	0	0	0	403	4	0	0	
12	0	0	0	0	0	0	344	3	0	0	
13	0	0	0	0	0	0	418	5	0	0	
14	0	0	0	0	0	0	331	10	0	0	
15	0	0	0	0	0	0	392	4	0	0	
0	0	0	0	0	0	0	323	3	0	0	
1	0	0	0	0	0	0	415	14	0	0	
2	0	0	0	0	0	0	353	11	0	0	
3	0	0	0	0	0	0	444	6	0	0	
4	0	0	0	0	0	0	380	4	0	0	
5	0	0	0	0	0	0	494	7	0	0	
6	0	0	0	0	0	0	460	15	0	0	
7	0	0	0	0	0	0	556	7	0	0	
8	0	0	0	0	0	0	492	7	0	0	
9	0	0	0	0	0	0	563	7	0	0	
10	0	0	0	0	0	0	472	6	0	0	
11	0	0	0	0	0	0	511	7	0	0	
12	0	0	0	0	0	0	403	4	0	0	
13	0	0	0	0	0	0	445	15	0	0	
14	0	0	0	0	0	0	349	3	0	0	
15	0	0	0	0	0	0	406	5	0	0	
0	0	0	0	0	0	0	307	9	0	0	
1	0	0	0	0	0	0	364	4	0	0	
2	0	0	0	0	0	0	275	7	0	0	
3	0	0	0	0	0	0	358	12	0	0	
4	0	0	0	0	0	0	307	3	0	0	
5	0	0	0	0	0	0	419	6	0	0	
6	0	0	0	0	0	0	381	4	0	0	
7	0	0	0	0	0	0	488	17	0	0	
8	0	0	0	0	0	0	441	6	0	0	
9	0	0	0	0	0	0	524	7	0	0	
10	0	0	0	0	0	0	441	6	0	0	
11	0	0	0	0	0	0	507	18	0	0	
12	0	0	0	0	0	0	405	5	0	0	
13	0	0	0	0	0	0	448	6	0	0	
14	0	0	0	0	0	0	333	3	0	0	
15	0	0	0	0	0	0	386	12	0	0	
0	0	0	0	0	0	0	304	9	0	0	
1	0	0	0	0	0	0	403	4	0	0	
2	0	0	0	0	0	0	359	3	0	0	
3	0	0	0	0	0	0	481	17	0	0	
4	0	0	0	0	0	0	460	15	0	0	
5	0	0	0	0	0	0	583	8	0	0	
6	0	0	0	0	0	0	560	7	0	0	
7	0	0	0	0	0	0	658	11	0	0	
8	0	0	0	0	0	0	590	22	0	0	
9	0	0	0	0	0	0	639	25	0	0	
10	0	0	0	0	0	0	540	7	0	0	
11	0	0	0	0	0	0	588	8	0	0	
12	0	0	0	0	0	0	470	6	0	0	
13	0	0	0	0	0	0	519	7	0	0	
14	0	0	0	0	0	0	428	6	0	0	
15	0	0	0	0	0	0	519	7	0	0	
0	0	0	0	0	0	0	473	7	0	0	
1	0	0	0	0	0	0	601	9	0	0	
2	0	0	0	0	0	0	590	8	0	0	
3	0	0	0	0	0	0	716	12	0	0	
4	0	0	0	0	0	0	670	27	0	0	
5	0	0	0	0	0	0	736	31	0	0	
6	0	0	0	0	0	0	609	9	0	0	
7	0	0	0	0	0	0	696	12	0	0	
8	0	0	0	0	0	0	679	11	0	0	
9	0	0	0	0	0	0	748	12	0	0	
10	0	0	0	0	0	0	423	6	0	0	
11	0	0	0	0	0	0	423	6	0	0	
12	0	0	0	0	0	0	365	12	0	0	
13	0	0	0	0	0	0	496	17	0	0	
14	0	0	0	0	0	0	448	6	0	0	
15	0	0	0	0	0	0	545	7	0	0	
0	0	0	0	0	0	0	503	7	0	0	
1	0	0	0	0	0	0	625	24	0	0	
2	0	0	0	0	0	0	588	8	0	0	
3	0	0	0	0	0	0	675	27	0	0	
4	0	0	0	0	0	0	611	9	0	0	
5	0	0	0	0	0	0	694	11	0	0	
6	0	0	0	0	0	0	590	8	0	0	
7	0	0	0	0	0	0	643	9	0	0	
8	0	0	0	0	0	0	526	19	0	0	
9	0	0	0	0	0	0	575	22	0	0	
10	0	0	0	0	0	0	486	7	0	0	
11	0	0	0	0	0	0	574	7	0	0	
12	0	0	0	0	0	0	527	7	0	0	
13	0	0	0	0	0	0	668	11	0	0	
14	0	0	0	0	0	0	646	10	0	0	
15	0	0	0	0	0	0	768	13	0	0	
0	0	0	0	0	0	0	704	12	0	0	
1	0	0	0	0	0	0	790	34	0	0	
2	0	0	0	0	0	0	707	12	0	0	
3	0	0	0	0	0	0	768	13	0	0	
4	0	0	0	0	0	0	676	11	0	0	
5	0	0	0	0	0	0	759	13	0	0	
6	0	0	0	0	0	0	676	11	0	0	
7	0	0	0	0	0	0	740	12	0	0	
8	0	0	0	0	0	0	647	9	0	0	
9	0	0	0	0	0	0	702	12	0	0	
10	0	0	0	0	0	0	611	9	0	0	
11	0	0	0	0	0	0	688	28	0	0	
12	0	0	0	0	0	0	632	9	0	0	
13	0	0	0	0	0	0	732	31	0	0	
14	0	0	0	0	0	0	661	26	0	0	
15	0	0	0	0	0	0	758	13	0	0	
0	0	0	0	0	0	0	694	28	0	0	
1	0	0	0	0	0	0	775	33	0	0	
2	0	0	0	0	0	0	686	11	0	0	
3	0	0	0	0	0	0	746	31	0	0	
4	0	0	0	0	0	0	636	9	0	0	
5	0	0	0	0	0	0	697	12	0	0	
6	0	0	0	0	0	0	596	23	0	0	
7	0	0	0	0	0	0	670	11	0	0	
8	0	0	0	0	0	0	600	9	0	0	
9	0	0	0	0	0	0	684	11	0	0	
10	0	0	0	0	0	0	612	24	0	0	
11	0	0	0	0	0	0	705	12	0	0	
12	0	0	0	0	0	0	630	9	0	0	
13	0	0	0	0	0	0	716	30	0	0	
14	0	0	0	0	0	0	632	9	0	0	
15	0	0	0	0	0	0	714	12	0	0	
0	0	0	0	0	0	0	647	10	0	0	
1	0	0	0	0	0	0	735	12	0	0	
2	0	0	0	0	0	0	646	25	0	0	
3	0	0	0	0	0	0	699	12	0	0	
4	0	0	0	0	0	0	615	9	0	0	
5	0	0	0	0	0	0	711	12	0	0	
6	0	0	0	0	0	0	628	9	0	0	
7	0	0	0	0	0	0	710	29	0	0	
8	0	0	0	0	0	0	641	9	0	0	
9	0	0	0	0	0	0	734	31	0	0	
10	0	0	0	0	0	0	636	9	0	0	
11	0	0	0	0	0	0	672	11	0	0	
12	0	0	0	0	0	0	558	7	0	0	
13	0	0	0	0	0	0	604	24	0	0	
14	0	0	0	0	0	0	528	7	0	0	
15	0	0	0	0	0	0	601	9	0	0	
0	0	0	0	0	0	0	529	7	0	0	
1	0	0	0	0	0	0	723	12	0	0	
2	0	0	0	0	0	0	790	14	0	0	
3	0	0	0	0	0	0	758	13	0	0	
4	0	0	0	0	0	0	492	7	0	0	
5	0	0	0	0	0	0	609	24	0	0	
6	0	0	0	0	0	0	547	7	0	0	
7	0	0	0	0	0	0	625	9	0	0	
8	0	0	0	0	0	0	515	7	0	0	
9	0	0	0	0	0	0	572	7	0	0	
10	0	0	0	0	0	0	479	17	0	0	
11	0	0	0	0	0	0	545	7	0	0	
12	0	0	0	0	0	0	463	6	0	0	
13	0	0	0	0	0	0	547	19	0	0	
14	0	0	0	0	0	0	467	6	0	0	
15	0	0	0	0	0	0	540	7	0	0	
0	0	0	0	0	0	0	472	16	0	0	
1	0	0	0	0	0	0	556	20	0	0	
2	0	0	0	0	0	0	483	7	0	0	
3	0	0	0	0	0	0	558	20	0	0	
4	0	0	0	0	0	0	470	16	0	0	
5	0	0	0	0	0	0	543	7	0	0	
6	0	0	0	0	0	0	448	6	0	0	
7	0	0	0	0	0	0	497	7	0	0	
8	0	0	0	0	0	0	387	12	0	0	
9	0	0	0	0	0	0	444	6	0	0	
10	0	0	0	0	0	0	347	3	0	0	
11	0	0	0	0	0	0	423	6	0	0	
12	0	0	0	0	0	0	359	12	0	0	
13	0	0	0	0	0	0	444	6	0	0	
14	0	0	0	0	0	0	379	4	0	0	
15	0	0	0	0	0	0	460	6	0	0	
0	0	0	0	0	0	0	371	12	0	0	
1	0	0	0	0	0	0	443	15	0	0	
2	0	0	0	0	0	0	346	3	0	0	
3	0	0	0	0	0	0	408	14	0	0	
4	0	0	0	0	0	0	321	9	0	0	
5	0	0	0	0	0	0	423	14	0	0	
6	0	0	0	0	0	0	380	12	0	0	
7	0	0	0	0	0	0	511	7	0	0	
8	0	0	0	0	0	0	471	16	0	0	
9	0	0	0	0	0	0	590	23	0	0	
10	0	0	0	0	0	0	540	7	0	0	
11	0	0	0	0	0	0	619	9	0	0	
12	0	0	0	0	0	0	529	7	0	0	
13	0	0	0	0	0	0	585	8	0	0	
14	0	0	0	0	0	0	479	16	0	0	
15	0	0	0	0	0	0	543	7	0	0	
0	0	0	0	0	0	0	442	15	0	0	
1	0	0	0	0	0	0	519	19	0	0	
2	0	0	0	0	0	0	440	15	0	0	
3	0	0	0	0	0	0	532	19	0	0	
4	0	0	0	0	0	0	476	7	0	0	
5	0	0	0	0	0	0	583	22	0	0	
6	0	0	0	0	0	0	518	7	0	0	
7	0	0	0	0	0	0	620	24	0	0	
8	0	0	0	0	0	0	550	7	0	0	
9	0	0	0	0	0	0	624	9	0	0	
10	0	0	0	0	0	0	524	7	0	0	
11	0	0	0	0	0	0	579	7	0	0	
12	0	0	0	0	0	0	472	6	0	0	
13	0	0	0	0	0	0	536	7	0	0	
14	0	0	0	0	0	0	441	15	0	0	
15	0	0	0	0	0	0	526	7	0	0	
0	0	0	0	0	0	0	441	6	0	0	
1	0	0	0	0	0	0	535	7	0	0	
2	0	0	0	0	0	0	472	16	0	0	
3	0	0	0	0	0	0	564	7	0	0	
4	0	0	0	0	0	0	495	7	0	0	
5	0	0	0	0	0	0	583	7	0	0	
6	0	0	0	0	0	0	489	7	0	0	
7	0	0	0	0	0	0	543	19	0	0	
8	0	0	0	0	0	0	399	4	0	0	
9	0	0	0	0	0	0	507	18	0	0	
10	0	0	0	0	0	0	560	7	0	0	
11	0	0	0	0	0	0	751	31	0	0	
12	0	0	0	0	0	0	457	6	0	0	
13	0	0	0	0	0	0	454	6	0	0	
14	0	0	0	0	0	0	414	5	0	0	
15	0	0	0	0	0	0	519	7	0	0	
0	0	0	0	0	0	0	440	6	0	0	
1	0	0	0	0	0	0	527	7	0	0	
2	0	0	0	0	0	0	441	6	0	0	
3	0	0	0	0	0	0	519	19	0	0	
4	0	0	0	0	0	0	425	6	0	0	
5	0	0	0	0	0	0	494	17	0	0	
6	0	0	0	0	0	0	381	4	0	0	
7	0	0	0	0	0	0	444	6	0	0	
8	0	0	0	0	0	0	369	4	0	0	
9	0	0	0	0	0	0	465	6	0	0	
10	0	0	0	0	0	0	396	4	0	0	
11	0	0	0	0	0	0	499	7	0	0	
12	0	0	0	0	0	0	444	15	0	0	
13	0	0	0	0	0	0	547	7	0	0	
14	0	0	0	0	0	0	488	7	0	0	
15	0	0	0	0	0	0	591	8	0	0	
0	0	0	0	0	0	0	512	18	0	0	
1	0	0	0	0	0	0	582	7	0	0	
2	0	0	0	0	0	0	483	17	0	0	
3	0	0	0	0	0	0	529	19	0	0	
4	0	0	0	0	0	0	441	15	0	0	
5	0	0	0	0	0	0	527	19	0	0	
6	0	0	0	0	0	0	433	6	0	0	
7	0	0	0	0	0	0	509	7	0	0	
8	0	0	0	0	0	0	428	6	0	0	
9	0	0	0	0	0	0	513	7	0	0	
10	0	0	0	0	0	0	445	15	0	0	
11	0	0	0	0	0	0	529	19	0	0	
12	0	0	0	0	0	0	451	6	0	0	
13	0	0	0	0	0	0	545	7	0	0	
14	0	0	0	0	0	0	472	16	0	0	
15	0	0	0	0	0	0	571	22	0	0	
0	0	0	0	0	0	0	489	7	0	0	
1	0	0	0	0	0	0	556	7	0	0	
2	0	0	0	0	0	0	451	15	0	0	
3	0	0	0	0	0	0	531	7	0	0	
4	0	0	0	0	0	0	444	6	0	0	
5	0	0	0	0	0	0	539	7	0	0	
6	0	0	0	0	0	0	463	15	0	0	
7	0	0	0	0	0	0	571	7	0	0	
8	0	0	0	0	0	0	497	7	0	0	
9	0	0	0	0	0	0	591	23	0	0	
10	0	0	0	0	0	0	504	17	0	0	
11	0	0	0	0	0	0	608	9	0	0	
12	0	0	0	0	0	0	532	7	0	0	
13	0	0	0	0	0	0	624	24	0	0	
14	0	0	0	0	0	0	540	7	0	0	
15	0	0	0	0	0	0	625	24	0	0	
0	0	0	0	0	0	0	519	7	0	0	
1	0	0	0	0	0	0	600	9	0	0	
2	0	0	0	0	0	0	492	7	0	0	
3	0	0	0	0	0	0	564	7	0	0	
4	0	0	0	0	0	0	467	6	0	0	
5	0	0	0	0	0	0	551	20	0	0	
6	0	0	0	0	0	0	465	6	0	0	
7	0	0	0	0	0	0	551	7	0	0	
8	0	0	0	0	0	0	472	16	0	0	
9	0	0	0	0	0	0	568	7	0	0	
10	0	0	0	0	0	0	492	17	0	0	
11	0	0	0	0	0	0	591	23	0	0	
12	0	0	0	0	0	0	510	18	0	0	
13	0	0	0	0	0	0	591	8	0	0	
14	0	0	0	0	0	0	489	7	0	0	
15	0	0	0	0	0	0	559	7	0	0	
0	0	0	0	0	0	0	417	5	0	0	
1	0	0	0	0	0	0	489	17	0	0	
2	0	0	0	0	0	0	494	7	0	0	
3	0	0	0	0	0	0	686	11	0	0	
4	0	0	0	0	0	0	432	15	0	0	
5	0	0	0	0	0	0	359	3	0	0	
6	0	0	0	0	0	0	287	3	0	0	
7	0	0	0	0	0	0	385	12	0	0	
8	0	0	0	0	0	0	292	3	0	0	
9	0	0	0	0	0	0	390	4	0	0	
10	0	0	0	0	0	0	307	3	0	0	
11	0	0	0	0	0	0	398	4	0	0	
12	0	0	0	0	0	0	316	3	0	0	
13	0	0	0	0	0	0	399	4	0	0	
14	0	0	0	0	0	0	287	7	0	0	
15	0	0	0	0	0	0	364	4	0	0	
0	0	0	0	0	0	0	263	3	0	0	
1	0	0	0	0	0	0	355	3	0	0	
2	0	0	0	0	0	0	261	2	0	0	
3	0	0	0	0	0	0	347	11	0	0	
4	0	0	0	0	0	0	262	7	0	0	
5	0	0	0	0	0	0	364	4	0	0	
6	0	0	0	0	0	0	304	9	0	0	
7	0	0	0	0	0	0	435	6	0	0	
8	0	0	0	0	0	0	359	4	0	0	
9	0	0	0	0	0	0	457	6	0	0	
10	0	0	0	0	0	0	371	12	0	0	
11	0	0	0	0	0	0	457	6	0	0	
12	0	0	0	0	0	0	344	3	0	0	
13	0	0	0	0	0	0	431	6	0	0	
14	0	0	0	0	0	0	334	3	0	0	
15	0	0	0	0	0	0	425	14	0	0	
0	0	0	0	0	0	0	339	11	0	0	
1	0	0	0	0	0	0	413	14	0	0	
2	0	0	0	0	0	0	301	3	0	0	
3	0	0	0	0	0	0	399	4	0	0	
4	0	0	0	0	0	0	316	9	0	0	
5	0	0	0	0	0	0	423	14	0	0	
6	0	0	0	0	0	0	352	11	0	0	
7	0	0	0	0	0	0	477	7	0	0	
8	0	0	0	0	0	0	408	14	0	0	
9	0	0	0	0	0	0	460	6	0	0	
10	0	0	0	0	0	0	339	3	0	0	
11	0	0	0	0	0	0	398	13	0	0	
12	0	0	0	0	0	0	283	3	0	0	
13	0	0	0	0	0	0	367	12	0	0	
14	0	0	0	0	0	0	284	7	0	0	
15	0	0	0	0	0	0	396	4	0	0	
0	0	0	0	0	0	0	334	3	0	0	
1	0	0	0	0	0	0	457	6	0	0	
2	0	0	0	0	0	0	390	4	0	0	
3	0	0	0	0	0	0	487	17	0	0	
4	0	0	0	0	0	0	403	14	0	0	
5	0	0	0	0	0	0	487	7	0	0	
6	0	0	0	0	0	0	399	13	0	0	
7	0	0	0	0	0	0	503	7	0	0	
8	0	0	0	0	0	0	427	6	0	0	
9	0	0	0	0	0	0	536	19	0	0	
10	0	0	0	0	0	0	460	6	0	0	
11	0	0	0	0	0	0	568	7	0	0	
12	0	0	0	0	0	0	489	7	0	0	
13	0	0	0	0	0	0	567	7	0	0	
14	0	0	0	0	0	0	444	15	0	0	
15	0	0	0	0	0	0	500	7	0	0	
0	0	0	0	0	0	0	396	4	0	0	
1	0	0	0	0	0	0	472	16	0	0	
2	0	0	0	0	0	0	374	4	0	0	
3	0	0	0	0	0	0	447	15	0	0	
4	0	0	0	0	0	0	356	3	0	0	
5	0	0	0	0	0	0	449	15	0	0	
6	0	0	0	0	0	0	348	3	0	0	
7	0	0	0	0	0	0	427	6	0	0	
8	0	0	0	0	0	0	408	5	0	0	
